ar_0,ar_1,ar_2,ar_3,auc,mean,var,stddev,dwt_0,dwt_1,dwt_2,dwt_3,dwt_4,dwt_5,dwt_6,dwt_7,dwt_8,dwt_9,dwt_10,dwt_11,dwt_12,dwt_13,dwt_14,dwt_15,dwt_16,dwt_17,dwt_18,dwt_19,dwt_20,dwt_21,dwt_22,dwt_23,dwt_24,wavelet_auc,wavelet_mean,wavelet_var,wavelet_stddev,bpm,ibi,sdnn,sdsd,pnn20,pnn50,rmssd,hr_mad,sampen,abnormal
1.0083001128407367,-0.020005838527027316,-0.006623840631885786,0.013965261353903233,3594493.5,998.7836111111111,2922.6434536265433,54.06147846319543,3810.5855642686047,4008.8696205475126,4029.1216272238535,4131.138104886813,4451.199247468343,4015.848385972208,3967.5184177438236,3965.819012891471,3977.750756560343,3749.8406436053306,4385.946907618259,3825.6051271007645,3837.281691128108,3889.8628777032745,3997.44714694906,4075.3385108110465,3933.340154821391,3874.468082701369,3846.683632593248,3873.605109493359,3926.884826733423,3911.048325628676,3755.3287533572975,4182.480300187847,3981.1566918030458,95508.29839176266,3976.1667807919384,27961.97804163263,167.21835438023132,104.15913200723325,576.0416870117188,62.714717864990234,78.13980865478516,0.6666666865348816,0.4000000059604645,105.40437316894531,27.77777862548828,0.20870187089490913,1
1.0555321197746916,-0.0027279298452370444,-0.006210456555573304,-0.05043187222279141,3559613.0,989.0725,12014.825021527779,109.61215727065944,3977.4681879584987,4686.164500277544,4796.423527474397,4329.849885658918,3752.6908319787553,4015.1359183980453,3907.929951328924,4110.038231919392,3981.673737266773,3573.0942283778054,5037.077053049921,3825.0574267019774,3549.310958804716,3502.9904801255284,3691.2187772941124,4176.2141600332625,4456.978615651075,4284.014619492606,3970.4564951945968,4104.335705211175,4032.1217882171895,3576.328551471919,4902.954466495667,4252.615511755319,4925.404376735281,98966.1117045265,4136.7019194749355,196470.5019279268,443.24993167278296,109.90721340915896,545.9150390625,58.307010650634766,78.6025161743164,0.5,0.375,101.84211730957031,8.333333015441895,0.1368670513426272,1
1.0184114924526828,-0.0054605601832594134,-0.008854639445103035,-0.007534624549015771,3538861.0,983.2877777777778,4214.042183950617,64.91565438282677,4018.3379023299217,3942.382725588709,3932.86550135807,3927.902986322016,3926.7663117631937,3914.8072131646577,3969.0541927441136,3978.834979317701,3964.5168556392546,3778.7133873153207,4367.317394436327,3844.1328110845907,3881.6586176963137,3927.081908454303,4068.7197930613584,4195.969683874098,4099.305121019623,3966.4228163639714,3961.810703010301,3973.472067633848,3970.7592736567276,4024.8850064211974,3982.6147740252163,3927.7714046204246,3932.8333838466037,95503.3511716596,3979.1574725899145,12523.001108418603,111.90621568268048,93.73837569745815,640.079345703125,55.39375686645508,68.33732604980469,0.6153846383094788,0.3076923191547394,84.67579650878906,25.0,0.1869151593591622,1
1.052793550347579,-0.020619450938980096,-0.019502212656240022,-0.01644025673800704,3274227.0,909.7544444444444,3836.189702469135,61.9369817029304,3689.3593459060417,3632.8413259924628,3628.482499984844,3618.276384327851,3605.909457371777,3545.419596831296,3538.514019994632,3531.6094668688947,3668.504179532932,3403.099862228,4346.546479044391,3501.482586410837,3498.2479056148027,3542.2272108185666,3598.3937443837012,3664.1907637606328,3689.8802281477197,3827.251055860344,3760.7771052770777,3613.4870880137123,3638.4418678376987,3687.1485691401303,3670.2321077634842,3617.3404025848345,3627.185413162058,87486.57628732467,3645.793946674349,27934.606481391165,167.13649057399513,66.58959537572254,901.0416870117188,116.28523254394531,103.07036590576172,0.8333333134651184,0.3333333432674408,134.60523986816406,25.0,0.09059539753566874,1
1.0480539321521152,-0.011582794494224323,-0.016869808293592345,-0.023419047646062556,3636442.0,1010.3927777777777,2167.0151700617284,46.55121018901365,3976.1425792064124,4315.32342408937,4372.904914375588,4552.773666570359,4665.443482733891,4019.5451903306416,3975.537442587049,3997.3832628346177,4005.918462538556,3860.6894421265533,4302.869590428908,3945.17210319715,3962.202346966626,4003.2958966832884,4159.3553105215715,4237.441783835139,4104.134050001779,4060.4764926295675,4054.9854934936334,4081.1752969711683,4096.680507364486,4097.29314070217,3950.947733071657,4563.297267001869,4302.986850272792,99524.41101579524,4146.559029221394,44130.295677233225,210.07212018074466,96.58256148195466,621.2301635742188,52.77367401123047,67.22386932373047,0.5384615659713745,0.1538461595773697,82.39860534667969,19.44444465637207,0.28625574215719407,1
1.017328052419113,-0.005449678620794481,-0.006878510194753244,-0.008457008657716548,3538240.0,983.1152777777778,2690.2692110339503,51.86780514957183,3755.8440132941478,3718.7111278180373,3710.667326263013,3714.1714873586807,3699.2486011578385,3978.7443436167723,4035.3721888182836,4018.9470370208146,3976.2545979345678,3808.397253431901,4314.722773484708,3835.856684955669,3875.7582252023303,3913.5964780806617,4079.4896912425643,4135.357314302888,3941.6723640420128,3851.5923308258425,3819.99879096079,3794.907493397899,3841.254917095199,3796.055203891428,3728.609535256761,3709.6853694048846,3725.905461956666,93039.94587318896,3871.232824432574,23707.73431053673,153.97316100715972,94.7091493715288,633.5184936523438,57.72136306762695,74.29436492919922,0.4285714328289032,0.2142857164144516,89.11182403564453,22.22222137451172,0.18212276939642102,1
1.0218361318302833,-0.005022991918799227,-0.015580641780828195,-0.00473764346882775,3537576.0,982.93,3043.7045444444443,55.16977926767919,3940.3372854041195,3958.7702898690086,3965.7215916868554,3956.7443486365337,3948.129595888988,3757.6416025138965,3788.773695285093,3785.6368035831083,3775.3740589999984,3617.413375277909,4276.099879832743,3664.4803468353552,3730.3418677164464,3792.9671813459236,3914.4507206306507,4095.368436802901,4077.663816514301,3887.1764127164424,3837.179841584177,3846.7629482204766,3855.8108464839356,3895.3980275003987,3965.318296699504,3957.191615824877,3956.47861211426,93298.82354920873,3889.8892599187157,19209.308492607288,138.59764966480236,90.29561063003882,664.484130859375,66.69293975830078,85.72344970703125,0.692307710647583,0.4615384638309479,120.15046691894531,22.22222137451172,0.18987301914625948,1
1.017233763927566,-0.00386923020680342,-0.005179441542430222,-0.011620255880057476,3575106.0,993.3486111111112,2796.7637480709877,52.884437673771174,3992.141592809285,3938.893780659408,3930.904296159585,3927.5416657952187,3924.887927518389,3904.251071339004,3935.200972292949,3962.3809585158547,3947.95106984565,3762.9997393559984,4322.850387781673,3836.828370377449,3887.2323578959185,3918.575112663258,4022.1918723253925,4161.798913822737,4138.815198403257,3973.2831900673864,3929.084002500165,3936.318739186423,3925.7958102811554,3978.5948219277607,3970.1911386086645,3926.786630360543,3931.9802224263594,95125.41893530166,3963.4991937167792,11303.897368892647,106.31978822821576,93.91304347826086,638.888916015625,46.147911071777344,53.12655258178711,0.692307710647583,0.5384615659713745,82.1099624633789,30.55555534362793,0.163080102572038,1
1.0162800300195216,-0.00866218097138456,-0.0028228768030445946,-0.008289406592769537,3473266.0,965.0577777777778,1720.489439506173,41.478783004159766,3839.0075838871817,3832.770202728793,3829.921787178878,3828.072041445478,3823.11032045227,3834.127792489077,3895.7125636790706,3900.2625587003363,3886.7996412461302,3633.134794687595,4310.460988966614,3846.500731664759,3776.3859585297228,3778.149706034037,3785.379701626477,3785.668434354819,3770.3478718203587,3788.9238912519004,3868.674720999525,3866.887494265553,3861.7578542973883,3837.5032590648316,3840.42839422864,3827.094503510649,3830.750914031627,92242.9544621823,3843.113348445668,11880.559755932629,108.99798051309313,73.60594795539033,815.1514892578125,75.27879333496094,96.4269027709961,0.800000011920929,0.5,128.1757049560547,27.77777862548828,0.10648773130247187,1
1.0165274971533311,-0.0080353378832754,-0.006389873247029943,-0.005695571066023633,3116715.0,866.0272222222222,1847.7892589506173,42.98591931028831,3607.518944227065,3610.4188318316537,3610.1266390536307,3602.14356043423,3585.0529317848795,3529.234841848351,3530.019888532799,3587.6867046408524,3568.2628685809927,3408.6837924028105,3828.2062289444657,3316.2468092848126,3393.8179417122365,3416.961505355765,3401.5621605062665,3331.1635025786118,3361.5596341738537,3504.9061645700754,3639.733068096756,3589.322693424681,3575.9391732266445,3573.143741826464,3627.5516229041964,3599.9293828826235,3610.1019459229065,84800.48413367264,3536.371783149905,13478.279799211636,116.0959938982032,86.89655172413792,690.4761962890625,55.731014251708984,84.44037628173828,0.5384615659713745,0.23076923191547394,101.19478607177734,12.5,0.5624219025521626,1
1.0095500809314957,-0.005954400153265745,-0.0008941929326932903,-0.006312963476091594,3153733.0,876.2913888888888,1720.1092591820989,41.47419992214556,3575.8928957450935,3627.4551693274775,3634.929371747672,3648.1654389927407,3670.0796120510295,3670.946204573759,3675.670986564289,3739.706960136565,3683.7868335571316,3528.280081744772,3967.1543200811248,3422.010099770144,3468.722405062837,3462.0837427600363,3423.663816680815,3377.780330707288,3365.5865467055496,3554.4354539869664,3635.320240587881,3605.9455378161965,3593.937960630821,3590.2032252598365,3583.4590221386725,3650.778013422394,3632.6436493903448,86184.36964687372,3591.545516777657,15840.520790358874,125.85913073892921,77.67244197450147,772.4747314453125,79.11418914794922,97.09555053710938,0.699999988079071,0.30000001192092896,125.6311264038086,36.11111068725586,0.15649403291182254,1
1.0159274445916375,-0.005249448661479791,-0.007038171934955689,-0.007160469303062257,3465017.5,962.7652777777778,1579.3035165895062,39.740451892115,3869.0225759137634,3875.103547345975,3876.745956685836,3877.081676248352,3875.2312347287198,3854.7363252870127,3928.6737869215085,3938.594269124171,3921.2075363730905,3667.2859949019626,4349.2515595925615,3882.4275867787674,3805.7352267322217,3809.8553352130716,3813.1553693319233,3819.671554390041,3786.610687353553,3859.6057190280962,3912.5996497021406,3918.04485924261,3892.806184397781,3872.514640770968,3871.565533606287,3876.9974909997313,3875.287102428294,93157.65656392742,3881.192456123937,12170.11901832583,110.31826239714724,74.2732103782432,807.8283081054688,48.19727325439453,46.471981048583984,0.5,0.10000000149011612,57.02907180786133,22.22222137451172,0.11742570136635645,1
1.026247859204788,-0.011159775622837325,-0.011650586243555227,-0.007106391055409639,3549550.5,986.2513888888889,2799.8070814043213,52.91320328050761,3888.323199831273,3830.181404222372,3813.354557911584,3806.8972918633954,3788.8598325245794,4082.3847555436814,4023.530032736925,3836.2111207256767,3882.1777299585983,3725.1023556129903,4403.29470693882,3904.0047513659665,3848.511818925911,3841.448968161354,3929.739034868031,4056.4880593178705,3923.192948353517,3861.635103810001,3849.138479070659,3848.043448580158,3831.2704064264203,3887.2472389980467,3869.060027352006,3802.1289639146003,3830.5240042923488,93503.32663924497,3894.5100096522715,17144.165464873855,130.9357302835015,98.29351535836179,610.4166870117188,49.266414642333984,52.75145721435547,0.4000000059604645,0.06666667014360428,60.41267395019531,11.11111068725586,0.1267808300147921,1
1.0066566626298012,-0.0026062335001426004,-0.0027077055974714173,-0.0046206053966267495,3477268.5,966.2102777777778,34872.81606103395,186.742646604984,3928.068693428399,3890.7693455329936,3884.4091279682284,3882.951493408072,3879.1922331875735,3938.05214070503,3973.5422110410505,3932.564510519567,3932.213707611147,3845.7488852534216,4634.084060089506,4054.6117429893707,3911.0993505349384,3922.8969059150945,3937.566615574482,4037.247619661116,4186.837186779732,4086.1570968653386,3932.854599862279,3909.7746761417393,3932.6835672146735,3936.3290942413223,3909.8244723908224,3882.063218005145,3887.067864456801,95341.04214043525,3969.944416775113,23847.612846772518,154.42672322746643,194.5945945945946,308.3333435058594,88.88888549804688,0.0,1.0,1.0,177.77777099609375,88.88888549804688,0.15194346002697998,1
1.0160511567301405,-0.006124655285406746,-0.002061920580075918,-0.01127250542128854,3561199.5,989.5002777777778,2618.465555478395,51.17094444583171,4058.4709711536952,3982.2305653195745,3974.207471190204,3972.581074991035,3970.2466641793235,3958.2106128400687,4004.648568724341,4022.7861392550635,4026.3567816043055,3843.164130984162,4473.477933076222,3942.0014502790145,3974.828556624622,4013.8840323900326,4140.819364568499,4277.328225352392,4189.385202500711,4044.057697864443,4016.160489322592,4012.455599218829,4052.4333735370374,4077.3912549983024,4017.796967232625,3972.177736098639,3973.9937209634163,96974.8622382106,4039.6437833707664,14726.722121499888,121.35370666567992,94.10397908800462,637.5925903320312,35.01714324951172,43.99082946777344,0.5714285969734192,0.2142857164144516,59.91340637207031,22.22222137451172,0.1563075286557715,1
1.011646763360884,-0.000796992091116891,-0.010221245815587835,-0.0040050914817652905,3627565.5,1007.9641666666666,2363.4267715277783,48.61508790003139,4088.5084679924184,4014.737338498261,4001.523497816883,3988.0546955174314,3988.6655110561023,4003.368705987039,3998.983765345316,4017.5008366700977,4013.130075118413,3892.067162487435,4302.747095155961,3948.5206680678725,3966.5417419227797,4022.9295336860487,4118.131120044855,4257.449537873238,4142.036810594212,4052.387314787505,4028.8581583782698,4049.671626630806,4062.4051026476113,4084.8434222744468,4064.1892214811887,3988.081584659862,4005.3352616631737,97053.74639152944,4044.0267302542898,7591.801800363189,87.13094628410269,96.8609865470852,619.4444580078125,56.27314376831055,78.0395278930664,0.2857142984867096,0.2142857164144516,91.21461486816406,13.88888931274414,0.34332384923552234,1
1.096231943867381,-0.04135522419721619,-0.04590514667515874,-0.013155024922042532,3298729.5,916.5616666666666,4273.862863888889,65.37478767758171,3831.0229728698428,3798.960978960957,3696.7210534554824,3454.631641279756,3424.3303977073515,3573.8889759263207,3581.0401943665775,3574.3101005392928,3698.6573152371757,3459.8503927120146,4293.895622057316,3510.6914606379178,3546.0596570023527,3578.999837914121,3635.1937455618895,3683.060320807772,3678.74255647835,3754.9434083032743,3667.690503614164,3740.6108818448965,3719.493830867896,3506.876164063261,4160.742378961021,3448.2609247060745,3771.0422468743636,87988.68495287735,3671.5887025099773,40097.45248508931,200.24348300279163,74.94795281054824,800.5555419921875,159.28466796875,134.7508544921875,0.875,0.5,180.99305725097656,38.88888931274414,0.08960188927150091,1
1.0197245063939409,-0.004986994726186358,-0.00732629147462308,-0.010937616465168979,3577249.5,993.9475,2813.870854861111,53.04593155804798,3891.965525830894,3855.9922191967516,3847.2787405567988,3844.8454101197385,3838.829269071479,3879.187039075184,3923.4070774320326,3894.341041618172,3901.702662834602,3708.7690424509274,4300.897969882778,3739.4294553237323,3779.6866149311513,3817.3179731458813,3931.360388105325,4065.369273914351,4027.090689238211,3853.292737134031,3805.0739663840764,3807.8285894841215,3802.054843127591,3860.826907189749,3883.071090463433,3843.527208698866,3850.0545150506846,93082.19022981977,3878.1280100104223,13050.909752003525,114.24057839490978,90.3765690376569,663.888916015625,39.100894927978516,43.45021057128906,0.5384615659713745,0.3076923191547394,60.79463577270508,26.38888931274414,0.1542538949793342,1
1.086789893550583,-0.00841765058089668,-0.01626767859527201,-0.06602998274172998,3565269.0,990.6152777777778,12427.071155478396,111.47677406293383,3461.3676009635524,4338.352750397421,4588.071344351354,4448.507655844426,3880.1426003342467,3727.8692878398806,3636.3946166952874,3840.2045305699444,3755.9337378127766,3422.4517541427695,4780.4936353860085,3622.4379292049903,3459.8246041448797,3465.773779957626,3736.251982527444,4138.003407348699,4268.8494498189475,4012.0016205322686,3668.0304340303805,3692.6937020398036,3802.2312158191426,3478.979272155224,4027.985922967358,4368.052522976224,4614.244668466546,94197.34389161215,3929.406001053089,159400.09405663065,399.2494133453807,107.62016412661195,557.516357421875,39.6375732421875,55.252811431884766,0.625,0.1875,69.51732635498047,11.11111068725586,0.1324342998101496,1
1.0209154752381648,-0.006317653401383538,-0.011609441908530239,-0.006441567902238298,3570383.0,992.0347222222222,2553.6290721450623,50.53344508486496,3917.9858578356593,3864.7745769684507,3862.137142918102,3863.1213896788795,3864.082067887245,3851.939767148586,3909.0500387039233,3905.53038446986,3908.8163789583255,3724.914311196107,4301.927086918263,3782.24241910014,3839.9847341675218,3882.7221374211067,3994.950753725335,4103.652751094631,4017.9647160622144,3918.471926147129,3900.597366138384,3898.4187710325396,3947.139419210002,3950.975588647226,3881.205911249886,3863.45340805042,3861.458326223148,93927.79513892368,3912.7006892381232,11473.109915414616,107.11260390549104,95.60543787543473,627.579345703125,44.33846664428711,51.73676681518555,0.4615384638309479,0.23076923191547394,66.16172790527344,19.44444465637207,0.18913415743645198,1
1.0511345149789861,-0.02148515451384403,-0.01853978669903558,-0.01484426712905471,3296152.5,915.8508333333333,3942.315249305556,62.78785909159155,3647.302946177505,3599.364384077784,3594.2966743231163,3588.636110702363,3586.4812340160543,3567.97679895432,3556.729387324693,3572.0384627430467,3688.983307862631,3441.762133925851,4318.862113530979,3500.109362845139,3510.0934052169177,3568.716344306156,3638.043759647305,3716.6791853942077,3772.0573896066794,3825.741630306721,3673.1859484404836,3594.734762212448,3633.2499447932714,3656.38932982823,3625.5115709137267,3588.4855668244472,3594.6417705578397,87439.10116616424,3642.402940981277,25447.102978013274,159.52148124316446,66.62097326936258,900.6173095703125,57.74657440185547,48.10597610473633,0.5714285969734192,0.1428571492433548,61.36311721801758,5.55555534362793,0.07908928850074678,1
1.0197492912546358,-0.008415203169765595,-0.005540187732402102,-0.009210391607360082,3521088.5,978.3508333333333,2233.56719375,47.260630484050886,3923.159808787759,3875.673584550924,3866.5486105791374,3863.9462355664423,3862.2051403586306,3913.4058233577093,3974.4054284643175,3977.2862960995817,3957.723944189524,3785.204333437609,4277.737056710835,3843.6391021348927,3905.809022186647,3962.4088363260935,4077.950308192407,4185.727697096821,4067.079310583448,3922.294301845686,3893.67261198527,3877.9909536385803,3909.866423265607,3933.164098066488,3902.1803294474903,3863.2690387744324,3870.3381284223483,94595.93745546363,3939.7074569627475,11568.90231450648,107.55883187589237,96.19952494061756,623.7036743164062,61.13523483276367,68.657958984375,0.4285714328289032,0.2857142984867096,86.72019958496094,25.0,0.22720792775558402,1
1.0185630320016208,-0.003755394338012332,-0.009553637461145672,-0.008701624607810774,3731416.5,1036.7952777777778,4272.844477700617,65.36699838374574,4128.2215357617815,4108.248730608317,4105.8163451157725,4103.683835356901,4099.143834988634,4121.378358086317,4165.788814198425,4140.694524349043,4141.675129391945,4043.919034360546,5328.333574726992,4269.095524651622,4030.636285271562,4035.979920886541,4013.679362444005,3974.9492436098253,4100.572153361611,4229.924677529563,4188.379606548675,4160.73009610358,4130.284246496093,4124.111031402788,4121.436708102695,4103.270648536174,4106.115339704478,99958.90012386075,4163.042742463756,60506.30173191479,245.98028728317803,71.30852340936376,841.4141235351562,52.30992126464844,54.71940231323242,0.800000011920929,0.6000000238418579,93.96528625488281,30.55555534362793,0.07574233207662413,1
1.0179673897415835,-0.006068239530327195,-0.007032545223472128,-0.008332704711208713,3559600.5,989.0516666666666,2402.020663888889,49.01041383103074,3950.6927630773826,3901.1902735738577,3898.636806841042,3897.5480322205817,3888.1850278440475,3989.193309164356,4043.703303010378,4037.925004340934,4005.692901372752,3799.2104087906228,4378.074400224282,3858.8978849126456,3911.5476861720263,3964.9645018343917,4075.623702739387,4152.657487728273,4080.6056097701126,3970.3466889139745,3941.932818758737,3948.0366164562447,3976.975086906604,3978.791078394192,3918.11330879898,3895.441526178653,3904.532487751319,95440.90609036142,3974.7407486310312,12617.453977900414,112.32744089446894,100.7149518184644,595.74072265625,43.49526596069336,52.462059020996094,0.6428571343421936,0.2857142984867096,70.31987762451172,19.44444465637207,0.24378418180043462,1
1.0103256330319395,-0.0025054532460754447,-0.0031613665697386105,-0.007938055112516528,3588514.0,997.0788888888889,2439.3354432098763,49.38962890334241,4020.55698428681,4007.450035189302,4008.2095742310084,4006.8021727616524,4002.621764470247,3970.8484452988773,4036.34060044926,4008.224313404237,4004.931840374242,3916.604773916469,4778.802575688369,4128.359849406368,3947.456322523325,3963.9533959349947,4005.867761941473,4135.038777243417,4279.371186011954,4152.212367857491,4015.2281822936066,4017.7051959520504,4035.235906805349,4028.4766355180745,4014.062830220155,4006.431096909334,4005.6924602732306,97483.36032668129,4059.8594019584516,26786.526484285077,163.66589896580496,54.36241610738255,1103.7037353515625,21.79370880126953,0.0,1.0,1.0,52.77777862548828,19.44444465637207,0.13449169999665686,1
1.011385251910839,-0.005020474118502407,-0.003398829835663172,-0.006293676713657376,3583962.0,995.8141666666667,2350.6985215277778,48.484002738303055,3980.1036460688765,3901.7535306324394,3892.5278291886575,3893.096282723411,3886.622928135489,3911.9854006711575,3994.8844794919114,3978.8974495593466,4002.052553398316,3810.7717722472626,4278.67017521239,3869.168508106998,3926.662274198784,3957.194162471216,4092.927207728536,4174.718758478651,4138.182773093381,3999.6512284664063,3971.986358184426,3949.7383286270833,3986.274916163826,4012.0582690717765,3934.7758451328264,3891.6665397501024,3894.212327321513,95393.42555742958,3973.223341764991,10522.147216202025,102.57751808365235,96.42857142857142,622.2222290039062,48.22998809814453,61.250099182128906,0.6428571343421936,0.2142857164144516,78.56742095947266,13.88888931274414,0.21562118391978383,1
1.0147042199344476,-0.0021591482005756074,-0.01357655804704751,-0.002685683377500762,3569244.5,991.7333333333333,2573.677777777778,50.731427909903914,4092.4789556486026,4089.161447296603,4077.1702705487432,4077.6607823231634,4072.4373816464004,4267.591706034825,4162.030123366755,3971.118946852928,4021.284865419012,3850.933961214505,4450.92650226997,4000.7163011057582,3973.8440946674864,4014.8645936211956,4117.960622149041,4222.2536565349965,4125.391580547758,4039.008454686109,4014.0287498879716,4028.857895934337,4006.2295019656517,4057.2085522044717,4101.0587632392035,4075.9366364596453,4086.776073262139,97907.30290443191,4079.877216755491,12329.61533550216,111.03880103595391,101.23022847100177,592.7083129882812,70.85971069335938,80.77853393554688,0.7333333492279053,0.46666666865348816,114.21138000488281,26.38888931274414,0.32437158758301815,1
1.0188869692852125,-0.008505797875424428,-0.003710448720870527,-0.010146328968115731,3573012.5,992.7733333333333,3675.8230666666664,60.6285664243075,3895.2323667476066,3829.1222592915765,3828.7949798743357,3813.05701353122,3806.8741537673654,3748.2918128385754,3811.7611491853922,3814.7600841261165,3798.507614935255,3625.8152713567856,4180.128122753324,3709.4541181060717,3732.677489104921,3767.4230962993543,3914.6415806625114,4068.2003124219427,3944.2677141081685,3826.0640510987378,3844.379949807324,3808.229256951295,3822.1287789219537,3908.464665623594,3863.161780432473,3813.1552472755457,3831.2091363223126,92142.58125400881,3840.23208022175,11526.213561263508,107.3602047374329,95.07042253521125,631.111083984375,34.26476287841797,44.41609191894531,0.5,0.2142857164144516,56.499908447265625,8.333333015441895,0.3135726043056744,1
1.0161591250936615,-0.0006996241517095588,-0.008209549681322334,-0.010727965828971954,3514556.5,976.5358333333334,3919.9848270833336,62.60978219961585,4033.2594890038254,3993.4634186073877,3986.980873322957,3986.1368774910707,3983.9134339842467,4021.3912330516096,4086.3925828382667,4074.7397830510276,4066.864662951107,3798.100162754619,4763.120295464758,4085.289904523084,3939.9170440948305,3923.8117725778116,3944.5629490561787,4071.9301129802457,4229.734134241428,4130.901810873855,4031.758936250015,4018.7386789701272,4053.269544444622,4049.716233678607,4011.7301673622574,3985.1893926689563,3990.0132581664107,97249.29037882418,4050.437070096372,27249.651364632537,165.07468420273455,67.39469578783152,890.2777709960938,57.61796951293945,64.62936401367188,0.6666666865348816,0.4444444477558136,87.68474578857422,30.55555534362793,0.13124112525548723,1
1.017645430271263,-0.004369896365326974,-0.005739173007451388,-0.010978473471433702,3519668.0,977.9627777777778,2946.587503395062,54.28247878823389,4059.1962289510493,4006.317595929534,4004.04017419531,3986.21857921939,3961.4559357972557,3979.5243523045287,4046.4391542867256,3987.584741838503,3994.2972597391304,3809.0468295686505,4442.88567700387,3851.7229374062176,3916.141081259051,3951.414728638737,4058.5685544593907,4208.663419826145,4178.106142194797,4016.911607694033,3977.9454870470404,3991.8912828596563,4014.3371015225266,4056.2024352679873,4048.4604418787476,3983.2783325819123,4007.0943285250714,96504.5991312572,4021.50977639981,13839.79168888133,117.64264400667528,94.55909943714823,634.5238037109375,85.2537612915039,96.64688110351562,0.8461538553237915,0.4615384638309479,141.86135864257812,31.94444465637207,0.16531762526737842,1
1.0147042199344476,-0.0021591482005756074,-0.01357655804704751,-0.002685683377500762,3569244.5,991.7333333333333,2573.677777777778,50.731427909903914,4092.4789556486026,4089.161447296603,4077.1702705487432,4077.6607823231634,4072.4373816464004,4267.591706034825,4162.030123366755,3971.118946852928,4021.284865419012,3850.933961214505,4450.92650226997,4000.7163011057582,3973.8440946674864,4014.8645936211956,4117.960622149041,4222.2536565349965,4125.391580547758,4039.008454686109,4014.0287498879716,4028.857895934337,4006.2295019656517,4057.2085522044717,4101.0587632392035,4075.9366364596453,4086.776073262139,97907.30290443191,4079.877216755491,12329.61533550216,111.03880103595391,101.23022847100177,592.7083129882812,70.85971069335938,80.77853393554688,0.7333333492279053,0.46666666865348816,114.21138000488281,26.38888931274414,0.32437158758301815,1
1.0159783202641273,-0.0026749309546092157,-0.01023570509379738,-0.006709554346875953,3574451.5,993.1963888888889,2202.366153626543,46.929374102224536,3919.8136203724416,3893.862545572214,3884.9307367862352,3879.8880319177465,3863.1568279916683,4102.397493126897,3997.8904469092313,3890.098270555009,3922.457135424934,3786.661227654179,4245.718436288955,3824.0233824727,3866.042221073484,3907.5649729513734,4024.848579138854,4112.292934258565,3971.820352243947,3865.3108463677813,3896.410499679102,3903.779898293352,3870.9541486510334,3897.2072946057406,3917.8633669758465,3876.2582534109865,3899.5196681943426,94311.10454663323,3928.830847636665,9636.67045014856,98.16654445455723,94.84777517564403,632.5925903320312,20.59971809387207,11.337336540222168,0.4285714328289032,0.0,20.98489761352539,13.88888931274414,0.22201609062713526,1
1.0136617072980643,-0.0052879332957157426,-0.00964408040179873,-0.0022213427663492122,3438738.5,955.4647222222222,1305.8031999228394,36.13589904683208,3804.8915723332593,3823.272707897295,3825.325086361062,3830.9307132755293,3841.487137274922,3844.8538671410643,3917.8405022379256,3936.7446402697806,3892.6349079741676,3682.8723179296294,4171.377528529843,3848.591970758561,3796.881739302805,3790.1311576094176,3794.0593970216573,3799.045412080301,3780.4367506789513,3817.718672193768,3853.2485470084252,3849.3087992891105,3828.7798013424153,3812.0639029688273,3806.897869058569,3832.513116473977,3823.96662500594,92191.4456433476,3840.234989680688,6774.120433194387,82.30504500450982,76.16808698207464,787.7315063476562,67.69517517089844,88.29576873779297,0.4545454680919647,0.27272728085517883,107.8140869140625,23.61111068725586,0.1535820555119012,1
1.0184857982542728,-0.007675835959707646,-0.00682183941247342,-0.007471281123110238,3578628.5,994.3283333333334,2811.3210861111106,53.02189251725282,3825.7804230661122,3768.3242670685086,3757.11275134445,3756.496955660252,3756.3814597293567,3825.523513088567,3867.563235827648,3865.9088140002054,3851.34637348706,3645.9509716103676,4199.202398242074,3708.687162609434,3780.312915185511,3814.008759205322,3939.0630863901442,4025.371704906226,3869.698265881019,3782.6018591188977,3768.570408372178,3775.358938160236,3818.1192228459013,3834.9114831462257,3798.440565900357,3756.1298617149505,3761.287299559911,91758.6188348079,3822.0861078448365,11247.158861839818,106.05262307854444,93.85863267670916,639.25927734375,29.3949031829834,36.86420440673828,0.1428571492433548,0.1428571492433548,42.840606689453125,16.66666603088379,0.1859075427068102,1
1.0187252295665221,-0.007507424379692574,-0.006387324633320782,-0.008315489544256753,3525391.0,979.5497222222223,2311.014194367284,48.073009000553355,3906.1359515725894,3853.356013604196,3845.4084498948796,3843.4285951715938,3850.6516413834106,3879.379903511406,3906.389038280158,3931.800407300172,3907.5669493381024,3725.082775468592,4239.744587298687,3757.3003179807265,3840.228169918274,3896.3151345077063,4027.134554625595,4160.550971161736,4035.5466191426463,3889.489167986445,3870.0350687188293,3874.5870382931635,3934.662776993665,3931.3765454523927,3876.2005049510135,3844.3615776367074,3848.701913646623,93798.0157412297,3907.0173869535724,11746.44257145275,108.38100650691868,95.71639586410633,626.8518676757812,62.5887565612793,76.46409606933594,0.5714285969734192,0.3571428656578064,101.83772277832031,22.22222137451172,0.16669764195755665,1
1.0145448777865782,-0.00040005371251667477,-0.007979396525466935,-0.009651677933827168,3695349.5,1026.7791666666667,7047.061510416666,83.94677784415948,3923.8420947197224,3934.9734035337024,3932.6082562889924,3935.3465183922463,3926.831188708806,4107.274206630261,4137.825468223084,4101.469621822202,4103.770677114137,4079.6272627111953,5359.3525905582055,4242.165242368477,3923.5844348473424,3862.098804831262,3830.3896017576153,3774.794431892079,3745.6570980776937,3931.3472410425625,3994.606927665077,3977.0450843946883,3951.9574313750236,3927.662819216883,3929.567902607343,3932.9345645578132,3940.752701323291,96575.18817663818,4020.299422986388,86920.18120742175,294.82228750116866,69.65699208443272,861.3636474609375,72.63339233398438,87.3428955078125,0.8999999761581421,0.5,128.4373016357422,27.77777862548828,0.061010600857051095,1
1.0962788189917565,-0.03892830499197738,-0.043181636176792576,-0.01838593217469894,3309591.5,919.5830555555556,4286.066435108024,65.46805660097162,4217.419752636957,3680.075482581583,3436.430739274302,3485.8466489812827,3544.0585012517945,3565.092612634442,3565.2820545877576,3567.8123023794496,3693.6728387260437,3437.843096973889,4411.0809037855815,3518.0477307559795,3549.6133915724795,3601.782350511682,3653.305924397297,3720.5671292677007,3762.4274298955515,3824.316943920179,3734.144330114635,3717.729008633442,3677.2883621454243,3645.8300799140525,4164.598997641146,3495.168904739123,3420.0958925660657,88270.77358728633,3683.5812563955137,58306.52713842903,241.46744529735065,68.30639494026704,878.3950805664062,125.28279113769531,7.186813831329346,0.1428571492433548,0.0,11.307783126831055,5.55555534362793,0.08316398526073608,1
1.0069699741279599,-0.0010603762353847595,-0.003460979586045837,-0.005684638910742072,3530880.0,981.0586111111111,3578.007398070988,59.81644755475695,3655.532547159988,3625.255423087934,3623.3621834567875,3618.8940281655264,3611.455439885014,3575.7282190738497,3625.5523583227205,3611.46085950797,3615.387853113908,3536.4792929054215,4424.135684450154,3794.3513197075,3585.8959303231745,3604.272213499708,3638.29116458913,3737.363162340827,3877.778426493786,3856.109105971063,3676.4791392383463,3630.640844157833,3647.513758270612,3661.2889026682474,3643.181401392009,3617.878019298949,3622.5521761751843,88477.79709158806,3684.6735781302255,29077.275012587947,170.520599965482,53.071253071253075,1130.5555419921875,15.214515686035156,7.856741905212402,0.6666666865348816,0.0,18.42569351196289,5.55555534362793,0.13802129789737475,1
1.0372443161952103,-0.013938820620989908,-0.01828934132465717,-0.00833332938500423,3585533.5,996.2552777777778,4036.9006665895063,63.536608869135485,3960.6528477174465,4222.927817991865,4345.522656920052,4281.25015060758,3940.827511382628,3848.885351249219,3932.265889972611,3942.3561130500175,3946.6155180184887,3788.480659418604,4326.03654272242,3855.3537338542856,3918.2763815082867,3997.730660704013,4131.669840114447,4256.424944585011,4121.409056707504,3974.5769430091013,4017.000365338905,4017.2018741424135,4099.604804139314,3970.072224649786,4156.1074505997585,4237.397302628679,4343.593568968517,97480.11700165799,4065.289608400037,26702.841718579162,163.41004166996336,98.36065573770492,610.0,57.86674118041992,69.90324401855469,0.5714285969734192,0.4285714328289032,94.70086669921875,16.66666603088379,0.3963101145882547,1
1.0073789038762089,-0.003551575397049603,-0.0019148169399340771,-0.005315445198821144,3742318.5,1039.8166666666666,4543.637500000001,67.40650932958924,4090.1361499096406,4064.692814750073,4058.227237825353,4059.7407017678297,4048.8172131578494,4180.303460224543,4210.178348204095,4189.616980614239,4169.639745958471,4139.604723295691,5023.945538648854,4204.952166450082,4044.9751073434436,4011.132104666136,3985.6885231240803,3919.530517951249,3986.5185673630067,4146.867486398495,4144.711406939606,4120.780127144829,4104.692011390976,4098.472914031517,4077.0047440529,4057.1959559147326,4064.347370804716,99124.53015757524,4128.0708767172955,38523.24753132782,196.27339995864907,75.45252461098761,795.2020263671875,77.67932891845703,97.34754180908203,1.0,0.5,136.02037048339844,33.33333206176758,0.13488572308640667,1
1.0207914389420567,-0.00708093552826841,-0.010342279305627177,-0.006789113750053865,3621910.0,1006.3605555555556,2308.7427774691355,48.04937853364115,3987.0239977089723,3924.2488428731604,3916.486540782151,3916.3186345517124,3923.5407955161213,3849.5641272358644,3910.7972517012463,3905.921770576081,3901.3204431576405,3720.5908140233605,4299.863166789468,3844.393991575118,3883.971541934046,3930.5788073503027,4072.2141758239404,4213.52552538099,4088.1675532824347,3979.742978576089,3953.589351190579,3930.8535695795817,3989.7364185000743,4004.4257881834,3953.048782018871,3917.663833661253,3912.572817854531,94980.36311204523,3957.206460793079,12891.427849322916,113.54042385565995,95.80130100532232,626.2963256835938,34.42452621459961,39.70039367675781,0.4285714328289032,0.1428571492433548,49.85649490356445,19.44444465637207,0.18555640122590383,1
1.0524307092259855,-0.016418455838652837,-0.022746751920476187,-0.01708071943209102,3294240.0,915.3236111111111,4349.182775848765,65.9483341400582,3717.4369113884027,3652.723993961553,3645.386035237361,3638.832066991848,3633.9466463130225,3618.7374918246933,3613.7370514468234,3615.013722329837,3757.424177900859,3494.6654093708567,4452.631295396224,3539.726693205556,3588.3207832403436,3622.41005035618,3665.9915038503686,3734.9456151679706,3749.6555125881378,3836.3881954377844,3688.1377265468836,3619.848558331595,3683.7207566909433,3729.7167475995993,3688.204432437441,3637.9203772774194,3646.024392233021,88589.81549531402,3690.861845884989,29078.581371274755,170.52443042354594,68.96551724137932,870.0,105.82421875,139.05545043945312,0.6666666865348816,0.3333333432674408,173.46722412109375,33.33333206176758,0.07470963677728039,1
0.9989456228574485,-0.00392694626868688,0.0013107456377817366,0.0001469607517846517,3525859.5,979.6869444444444,2809.7539406635797,53.00711217057179,3911.4856240664813,3883.8245457686508,3882.1783527376874,3874.549786109963,3899.358753438709,3957.2668834126634,4006.7313303129777,3996.201570602766,3978.897920544935,3796.435701895979,4347.012929367316,3856.369098521309,3887.6562493209713,3921.081908541291,4043.4732575104154,4162.40274442788,4086.209468762402,3966.434209546544,3935.451102583819,3925.689190543392,3967.6338774020473,3945.5124516074293,3891.389618252211,3879.900529991801,3886.273564506656,94990.54107548972,3955.5768267910516,12203.729102930556,110.47048973789586,93.183779119931,643.888916015625,60.64807891845703,78.14261627197266,0.6428571343421936,0.2857142984867096,100.3109130859375,19.44444465637207,0.17790175224255508,1
1.0309318946015011,-0.009873809879649675,-0.015299245759331292,-0.00937801201668796,3579740.5,994.6477777777778,2200.2453839506175,46.90677332700063,4269.671819015014,3892.8354553011286,3890.8788652480152,3913.433077991258,3931.3784075111084,3933.7901552491767,3974.5520803456443,3987.3669388679778,3968.877756401803,3782.9587967476746,4294.380427435992,3831.3443013891897,3899.955493557726,3955.6525730138883,4060.805929756243,4173.887289433997,4103.479793273839,3991.62864062255,4032.500385603017,4024.957525988706,3876.541039888425,4198.734934941304,3998.4364764852685,3915.4055723199804,3887.095104381951,95712.1653790724,3991.621953630835,16317.776924806367,127.74105418700115,96.2852897473997,623.1481323242188,39.48832702636719,38.613067626953125,0.4285714328289032,0.0714285746216774,48.63094711303711,16.66666603088379,0.1653354379570876,1
1.0247635720512605,-0.007962273185571958,-0.010721377799466456,-0.009502373481506177,3556329.0,988.1447222222222,2290.020999922839,47.85416387236161,3940.6662667589308,3887.8194149877936,3885.384381759519,3879.407228636475,3869.002772213896,3882.34301987282,3931.4366243818768,3929.710824032874,3912.7811517800683,3725.4664564340337,4306.995765138738,3798.866316939507,3843.053128808071,3902.603465482086,4043.1499115411243,4149.630795798332,4059.186644517044,3948.7610846703856,3931.0379347521516,3919.740349238819,3981.5435960383284,3966.4420728761024,3913.337945277474,3877.971436207278,3887.3168090600852,94459.6638592943,3934.9462158881524,12342.69890066274,111.09769979915308,96.51474530831099,621.6666870117188,45.135826110839844,61.83604431152344,0.3571428656578064,0.2142857164144516,73.26024627685547,16.66666603088379,0.22181854372004897,1
1.0162895545632267,-0.008546102887697356,-0.00739598500226034,-0.004007511956946428,3514648.0,976.5744444444445,2683.7855691358022,51.805265843693945,3683.1987541963344,3690.856501410749,3677.109057866556,3677.359355929885,3696.496149407349,4032.532877856927,4007.4140982765043,4010.6474564382775,3999.7785510306257,3817.2389153806807,4243.90877341974,3810.4578748882523,3794.9748136722005,3825.644110112352,3932.6985464741565,3971.8401263129294,3826.935672868709,3716.8986307558207,3692.5856958720556,3689.700526285503,3679.195911835496,3667.6531124695857,3691.215312965103,3679.1873433342566,3697.689990605883,91522.77378726483,3808.5287263866376,23663.691155440436,153.83007233775987,94.5886768845793,634.3253784179688,23.49075698852539,14.26992130279541,0.23076923191547394,0.0,21.140892028808594,13.88888931274414,0.16691840865725965,1
1.060235378116336,-0.01982887206963413,-0.02485736695438235,-0.019400053594784646,3300859.5,917.1622222222222,4443.117017283951,66.65671021948167,3651.905904899322,3603.960975751681,3598.6108543403175,3592.824020411361,3579.393289540475,3553.617400147974,3542.0037303793847,3556.027660028205,3720.117096608997,3370.1683582059513,4441.642502519258,3514.1247147150298,3486.681956708358,3531.275738590516,3598.8079867671577,3685.0923855721217,3744.285380103771,3879.352926293941,3721.607500289158,3587.918485897121,3604.13173539892,3645.837505868883,3635.359455236027,3591.023770734938,3598.222396219485,87408.92958066895,3641.3597492491335,35716.283349605335,188.98752167697563,67.33167082294264,891.111083984375,140.9557342529297,162.1266632080078,0.8888888955116272,0.6666666865348816,240.3754425048828,31.94444465637207,0.08377479889418142,1
1.0261669792532266,-0.006993212159709631,-0.008135463016437942,-0.015400020772884267,3849385.0,1069.526388888889,49646.31597029321,222.81453267301308,2715.925360047314,2777.7591084056417,2775.8038504745728,2783.6374071658634,2807.748289356163,3018.6135134211063,2973.6343627068345,2830.182928630675,2767.757905553483,2595.4157568854716,3784.1163330627282,2770.471363940869,2475.3756861969964,2434.301776159164,2416.2673895456005,2423.86853550301,2454.1608074178594,2516.9971533424814,2558.394545660055,2602.4332710556064,2650.395553734907,2698.4986517391,2741.224134206962,2786.48229732945,2788.1433522118723,65395.574977624194,2725.9043733501517,72949.20532593298,270.09110560315196,68.07437756066814,881.388916015625,94.9012680053711,112.31599426269531,1.0,0.4444444477558136,153.49996948242188,36.11111068725586,0.09649078001635149,1
1.0121431810217483,-0.001849568363904958,-0.00787989963221838,-0.0058411131258996355,3530010.5,980.8458333333333,2417.707621527778,49.170190375142724,4030.4157102484787,3982.8404873954278,3981.4788767978234,3965.1605230889786,3957.006616139068,3767.146049171386,3811.4486123309316,3835.7793669652974,3813.7749010058237,3635.4003606243077,4200.93313896759,3673.2863855095325,3763.6704596828085,3817.9049322225383,3922.83532162991,4068.284717839823,4090.064363230637,3973.120172091881,3908.497491520284,3959.5125002016043,3987.622961073571,4019.359376287923,4022.5833970836825,3965.511179798845,3975.257889425022,94126.05899049643,3925.155831613327,16694.65333451076,129.20779130729989,94.02205455600696,638.1481323242188,51.00297164916992,66.86625671386719,0.5714285969734192,0.2142857164144516,83.13800048828125,30.55555534362793,0.21786770469199526,1
1.0181696751364764,-0.0048346428299443495,-0.007275290914191159,-0.009605361817225565,3540293.5,983.6847222222223,2709.9492110339506,52.05717252246755,3943.8873678824284,3886.9651001412226,3874.4762231422073,3881.282893569392,3896.7902055804298,3894.6613857431194,3916.2663706640824,3911.94226337855,3911.1466839553977,3704.2226384582214,4299.374231463376,3776.428170987815,3800.9345099146312,3849.7537112897344,3934.5647176168213,4083.8682872042887,4036.2035706891884,3906.3733297399895,3847.542704058944,3836.7473435098664,3891.4505602703907,3948.5322143098424,3908.271932725172,3882.949666307824,3873.7169192350575,93789.55085827925,3907.9341200735194,11654.275754698734,107.95497095872304,97.4143114852676,615.9259033203125,36.295352935791016,46.75514221191406,0.5714285969734192,0.2142857164144516,62.23267364501953,16.66666603088379,0.24921579162398486,1
1.0237178243068905,-0.004908063806539353,-0.009512584520541009,-0.012765835392169448,3583571.5,995.7091666666666,2463.7201381944446,49.63587551554264,3989.1782763910505,3939.840574411038,3938.221613391742,3938.8078431047434,3930.393657496596,3828.789095985222,3900.7787680114097,3873.7009507092207,3895.462531463295,3668.2553388111896,4381.735591618415,3827.9481278234666,3826.3752378438785,3897.0294868346105,3954.4310967723927,4155.117021539285,4085.6031874492865,3951.730585404359,3891.0382382287103,3935.5724285110755,3888.58611362436,3973.946693501157,3962.849838541992,3937.366089876803,3933.507474448395,94544.92298637397,3940.250634471748,15747.704971158353,125.48986003322482,93.73837569745815,640.079345703125,37.966880798339844,47.62704849243164,0.38461539149284363,0.38461539149284363,65.4355697631836,16.66666603088379,0.36015699780784144,1
1.074302799057602,-0.005210993943637776,-0.007142591862991389,-0.06590505867198165,3625715.0,1007.4258333333333,13556.990610416666,116.43449063922883,3780.0628258154934,4679.378772076301,4894.3468091829955,4496.760989112813,3811.1868944630032,3956.7408916859617,3884.688951756942,4099.863522797609,4013.219958280667,3586.5064320390634,4972.220904346434,3713.9465544695013,3531.9432454452854,3515.9368870606077,3693.3672477869604,4050.884852729724,4369.2200984824785,4219.264862867956,3884.2511133812222,4035.840880959845,4016.578833906792,3576.5835428486535,4658.93671163715,4402.372797282729,5002.099203547434,98455.12276928216,4113.848151358546,200818.1635087953,448.1273965166549,111.3739763421292,538.7254638671875,37.67323303222656,34.37631607055664,0.25,0.0625,41.21865463256836,8.333333015441895,0.12204987862087001,1
1.027028616356064,-0.013325139601650519,-0.010548765060162217,-0.0066753917268787735,3622385.0,1006.5011111111111,3790.0899987654325,61.56370683093597,3914.513333251497,3997.3110063221993,3969.3668956149263,3773.4880292068933,3695.75745991866,3954.0576427463234,3998.8105552233187,4026.0011404980505,3996.2479505717915,3812.991106271436,4249.728886473131,3824.778341801936,3858.443831497643,3896.792428706908,4020.8365584033545,4078.069266574447,3970.4239026438504,3880.7351058969925,3898.2949335865183,3941.708334185237,3946.105993900653,3757.5006163008065,4192.042432472415,3761.6169366310874,4035.496752672904,94476.11439841078,3938.0447776549195,16389.688324418184,128.0222180889637,99.17355371900824,605.0,41.933712005615234,36.198219299316406,0.6428571343421936,0.2857142984867096,54.00617218017578,25.0,0.24656507403112057,1
1.0127324015750412,-0.004896903891461886,-0.0043908186325432525,-0.006822400330885218,3480681.5,967.1180555555555,2337.64134066358,48.34916070278346,3880.2148370292803,3898.3524655280294,3900.771191421205,3906.515741507149,3910.2357423263543,3850.5393284558027,3890.0774005301705,3954.2483345683963,3938.258177044053,3687.827506580537,4476.150187648287,4073.6787659596826,3841.8542970973754,3844.0571520519516,3832.6852517955817,3856.617555505296,3915.911545743012,4054.915154165549,4084.252528876059,3960.2389133631914,3902.1136476425977,3884.196961782348,3884.506098537436,3906.6953729786583,3896.6349151546565,94343.1241972007,3929.261962931707,18740.847483256,136.89721503104437,59.723502304147466,1004.629638671875,67.30660247802734,72.54119873046875,0.75,0.375,103.10102844238281,41.66666793823242,0.14122686512641566,1
1.0117829394706248,-0.005516962274663516,-0.005660897673587723,-0.004083798074794668,3432612.0,953.7683333333333,1727.959663888889,41.568734210809076,3763.3596853324634,3762.7577214725698,3760.0770748277027,3762.0613356136773,3762.0334135686408,3839.5876015447725,3905.351152375832,3884.9729603711244,3873.9428693656027,3628.729633208588,4315.160950580122,3838.6720907048075,3769.70223577179,3758.067991558409,3758.9400803955605,3748.980471273814,3734.207121170169,3766.093529937797,3815.3498872824275,3807.258315125665,3790.3496710091035,3756.870396616726,3763.8165611519944,3761.9252189559656,3762.5526585530165,91327.8644558256,3803.6328251107334,13891.776561911003,117.86338092007628,75.54648790440108,794.2129516601562,67.73316192626953,93.08287811279297,0.6363636255264282,0.3636363744735718,117.81541442871094,11.11111068725586,0.11382159285201021,1
1.015995091062572,-0.005360881654910355,-0.0050363551600503586,-0.009017419970415944,3579962.5,994.7122222222222,2759.9760728395067,52.53547442290311,3984.5364889031785,3952.4674937957807,3957.3988056756743,3957.652970715492,3949.8569199588533,3800.5125059212314,3837.7547458399986,3858.303278978112,3889.8737180360276,3710.5771471104727,4251.886035041911,3802.765420996179,3826.3448355007927,3897.2141618149203,4012.674977579456,4164.020861625067,4049.331093061066,3945.945249559362,3949.7687900293135,3948.1937683135898,4012.793897071748,4017.105534219406,3958.8322206906687,3956.725796639916,3950.346190184022,94675.44156771863,3945.715316290489,12168.989349848101,110.31314223540231,93.94027254276602,638.7036743164062,56.47814178466797,77.96685028076172,0.5,0.2142857164144516,96.43102264404297,27.77777862548828,0.1541731449221181,1
1.044419838557377,-0.015584404946543852,-0.02045838244182434,-0.01210314580114658,3376270.5,938.1072222222223,3467.081836728395,58.88193132641282,3713.048747416343,3670.9460460792366,3665.4379141688214,3659.407962880072,3649.7996134998925,3638.4310462674157,3638.651952876794,3654.2601916641415,3788.6391374563636,3538.5251915685158,4272.942136493232,3561.9202593504906,3599.5893254812936,3627.903064611037,3672.2658021304296,3735.7915189189457,3749.85203002446,3827.1222577853814,3730.6095597227154,3644.948283322518,3676.1068786513097,3710.6634859823116,3699.3753897019565,3658.1737394172633,3666.0413715650725,88760.90784754531,3698.018116281441,17628.629102576186,132.77284776103954,71.1990111248455,842.7083129882812,172.16586303710938,166.91082763671875,0.5,0.3333333432674408,216.5479278564453,23.61111068725586,0.09113821536744661,1
1.0418317307069827,-0.011235878937149337,-0.017277371709573223,-0.017007535539153157,3359694.5,933.5,3162.818333333333,56.23893965335169,3771.258762275801,3718.5575869142463,3714.498705055701,3708.2007618006132,3700.192929116064,3653.41243482097,3648.8078232471707,3657.435252125739,3762.481194502547,3534.2937040534844,4497.614629393866,3590.3440632726492,3623.1525627222977,3672.5105959287375,3721.3673415868916,3781.9737679301256,3790.077453307855,3859.335117644027,3777.9856141578803,3709.000320952847,3745.517815562437,3777.9429883719013,3748.423040799993,3707.2463270791654,3713.0502032391696,89842.52651310469,3743.387239834487,28361.34457532909,168.40826753852997,65.56492411467117,915.1234741210938,90.96826171875,116.82157135009766,1.0,0.375,158.85028076171875,25.0,0.08533162490578797,1
1.017233763927566,-0.00386923020680342,-0.005179441542430222,-0.011620255880057476,3575106.0,993.3486111111112,2796.7637480709877,52.884437673771174,3992.141592809285,3938.893780659408,3930.904296159585,3927.5416657952187,3924.887927518389,3904.251071339004,3935.200972292949,3962.3809585158547,3947.95106984565,3762.9997393559984,4322.850387781673,3836.828370377449,3887.2323578959185,3918.575112663258,4022.1918723253925,4161.798913822737,4138.815198403257,3973.2831900673864,3929.084002500165,3936.318739186423,3925.7958102811554,3978.5948219277607,3970.1911386086645,3926.786630360543,3931.9802224263594,95125.41893530166,3963.4991937167792,11303.897368892647,106.31978822821576,93.91304347826086,638.888916015625,46.147911071777344,53.12655258178711,0.692307710647583,0.5384615659713745,82.1099624633789,30.55555534362793,0.163080102572038,1
1.018060126064589,-0.005797684370145308,-0.008443443002176337,-0.007245784526073207,3492280.5,970.3416666666667,2157.4238194444442,46.448076595747686,3817.279190613829,3815.0264564034387,3812.8971252877736,3813.8691861630896,3813.1057940491164,3815.4990545273636,3869.569709232432,3916.43880162515,3893.3328786006396,3619.0442419396045,4514.824559555735,4018.398440478675,3774.344199446311,3763.1565449140026,3764.0741874173204,3794.6634173684347,3894.291205950075,4048.226196884333,3992.8651626822,3861.968646935899,3820.6519692176817,3810.9822688393074,3818.045338348248,3813.4357401726356,3813.144184978484,92873.92281383561,3867.5653800652717,24871.960207417524,157.7084658711051,62.06896551724138,966.6666870117188,128.6204071044922,105.8677978515625,0.6666666865348816,0.1666666716337204,127.63679504394531,33.33333206176758,0.09716686420861854,1
1.0093501621181327,-0.004831587051106877,-0.0037200294276775576,-0.004305545266288669,3477411.5,966.2141666666666,1556.5849659722223,39.45357988791667,3808.7715316367016,3817.9458548078537,3818.0627097628812,3817.973634608157,3823.6429904805414,3825.3103749883107,3885.7385585909797,3876.071370053799,3858.8210740405607,3648.38904915198,4198.249556480512,3819.2486165539344,3764.78311463813,3759.1166159202194,3772.406011362724,3763.040113445334,3721.780085505146,3792.303567425696,3852.5769711066323,3837.699970100923,3822.435867654767,3811.9937356822197,3812.686372962692,3819.168851532167,3817.9171539392055,91732.78940964412,3821.8453500972832,8230.93557695362,90.72450372944246,74.90542244640605,801.0100708007812,123.041748046875,145.2286376953125,0.699999988079071,0.6000000238418579,218.1466522216797,33.33333206176758,0.21884918594049474,1
1.0713915850995985,-0.07518421617872255,-0.061112104435670424,0.06093458632723267,3566223.0,990.8819444444445,2897.159673996913,53.825269846020404,3961.5361332251,3899.755194513046,3896.952108029595,3843.825302733355,3815.2229130133796,4065.1274811668663,4088.899302977386,4072.407470848596,3996.6632016191493,4000.739411953408,4427.289881204665,3826.489587727695,3808.3920406198113,3770.7196303227065,3916.8980273075895,4062.827593359022,3892.6950981377113,3868.22141537801,3805.004266364574,3895.0658162402096,3890.053112395447,3955.121705510419,3970.916327669148,3845.1573664843736,3923.2202187662488,94556.82243157184,3939.9680243027005,17741.465237326032,133.19709169995429,95.01466275659823,631.4815063476562,52.61345291137695,71.85087585449219,0.7142857313156128,0.2857142984867096,92.67424011230469,16.66666603088379,0.9006543081044001,1
1.078141316509482,-0.01602808640453657,-0.02059850528430685,-0.0456976673261058,3461033.0,961.6661111111111,12943.69296265432,113.77035186134532,4278.615443052297,3950.651503711584,3655.144007946658,3420.624369294347,3371.6149845015752,3812.166457205887,3721.55662607929,3937.4041472410972,3836.4797080155595,3442.9480007239013,4913.963824701027,3601.648863195291,3367.737419854188,3319.38210239056,3498.6608234262844,3898.0437221986476,4155.352896234453,3936.0876583280833,3657.2057576730076,3843.168314518035,3728.862748670519,3394.4272622129192,4707.288059549371,3413.1742638734363,3739.2013422539767,90592.50191419886,3784.05641227408,154378.27540986316,392.91000930221054,109.67741935483872,547.058837890625,56.899356842041016,74.99176025390625,0.5,0.375,99.08191680908203,13.88888931274414,0.13893959806026202,1
1.0324899351748664,-0.010026565999894786,-0.020270211595286816,-0.0057424434105551965,3611636.5,1003.5094444444444,3558.9826885802468,59.65720986251575,3818.9204191581193,3779.3900899374694,3770.1620188119923,3798.807242423733,3801.4696374073987,3995.8427927495086,4048.35058186144,4082.3474296426075,3992.1981732419904,3910.830823425986,4482.118917107784,3920.5548236313657,3952.538565082727,3931.5830890879874,4081.36622807583,4207.442693226207,4019.3950900729615,3891.3937529510563,3875.6347975577232,3811.175441091922,3857.615892554841,3882.0134162155728,3759.503687405504,3795.4194356438097,3778.1955429307136,94445.71260025183,3929.7708232518494,25989.362764487396,161.21216692448309,93.61456226524128,640.9259033203125,35.06998825073242,37.15565872192383,0.4285714328289032,0.1428571492433548,45.920433044433594,27.77777862548828,0.572224424898894,1
1.0064148002017108,-0.0020106518080913746,-0.0011452150730254956,-0.0067024886168870375,3528704.0,980.4619444444445,2372.7252184413583,48.71062736653428,3834.5432383530815,3832.8251245573756,3831.808626830207,3837.378569858005,3843.837404610386,3851.1741194658007,3831.7701755114526,3826.6288666165874,3862.4507860865588,3725.798412500533,4454.119166138955,3927.3928259643008,3768.3053149829325,3769.6159501450047,3775.9616447084154,3791.030767960052,3838.9886519893344,3905.7837309729393,3851.4286364283003,3846.459780205647,3848.3840986349705,3843.342481463301,3826.7424181191464,3838.228842534471,3831.1685284179975,92562.31227967021,3855.8067265222303,16562.123006694444,128.69391208093117,85.8691723888688,698.7373657226562,72.61319732666016,75.45523071289062,0.7777777910232544,0.4444444477558136,106.60620880126953,38.88888931274414,0.14620497106395614,1
1.0033087992486212,-0.0026257123264225,0.0008855327277494661,-0.005051759691329448,3534019.0,981.9425,4037.3786381944446,63.54037014524266,3882.2534280040413,3922.198693617297,3925.144103534363,3929.9500167490323,3952.9746254299516,3965.120777129179,3877.544520410479,3890.036865020062,3986.774284471405,3841.505726389086,4824.7852254080235,4144.3026724822475,3886.416154023896,3823.186333747718,3867.4054809876907,3980.6988640384166,3954.9815140925293,3874.5812758941092,3891.35709819102,3874.8667826559167,3872.884185425091,3881.6129313523065,3894.889550279954,3933.8333264369676,3926.6806015856246,94901.51802256159,3952.2394014942565,35544.700932555395,188.5330234535992,86.53312788906011,693.3760986328125,141.0916748046875,108.750732421875,0.8333333134651184,0.75,172.23902893066406,152.77777099609375,0.1017141152574909,1
1.0071902370019965,-0.0031328349810831996,0.0009439147034952662,-0.008401024169877133,3535024.5,982.2441666666666,1954.7945493055556,44.213058583472325,3943.2189845096214,3923.448866864489,3919.472596630161,3915.967615101071,3907.229558541758,3935.2741657365505,3897.3313122528643,3899.492867662203,3971.033315075394,3816.7636662791147,4510.097897192705,3993.086886794699,3804.795910057481,3766.5028624115675,3785.838910981408,3855.676285272628,3918.311968246478,3910.793234495838,3935.3338225173993,3927.764025814339,3914.3280477789267,3927.543673124705,3941.7215486182736,3914.45385943124,3920.7623369587336,94224.25355761548,3926.249768733986,17107.463109076445,130.7955011041146,79.88165680473374,751.111083984375,93.38623046875,70.13201141357422,0.875,0.875,147.58863830566406,56.94444274902344,0.10705092900408893,1
1.0064331252236418,-0.001233231764080446,-3.4321120602918344e-05,-0.008670071250536569,3572253.0,992.5519444444444,7298.554523996913,85.43157802590862,4225.37248877489,4222.281233659707,4210.390188929042,4183.091952888552,4150.168130269003,4110.719124573689,3984.5339809581815,3962.2604575227147,3928.017027340446,3972.5428886815453,4330.549383964067,3996.1630932583575,3890.614537640048,4000.5319099448916,4207.218663982522,4227.867116309313,4040.275240825119,4150.022632390135,4290.880144538185,4004.8254318370964,3948.3182626111216,4092.9464887535482,4283.782997580181,4178.532126877822,4214.409479748235,98586.42399959685,4112.252599354337,15997.51379783982,126.48127844799727,106.2992125984252,564.4444580078125,135.4222869873047,118.92449951171875,0.875,0.625,185.4985809326172,127.77777862548828,0.29216076821387804,1
1.021944349039537,-0.0009930544836144932,-0.005244378276937634,-0.01900219350137395,3551404.5,986.7808333333334,6519.26724375,80.74197943913686,3915.046860031224,3839.6513661597833,3840.0019191354604,3837.8279020241603,3833.622586307422,3785.011323327551,3835.783198911742,3907.19884534267,3974.9266692836795,3873.1797689797304,4900.806129617433,4021.4892797758353,3835.6074777047147,3824.811924073317,3797.8134547883983,3834.504576523508,3828.5565247539653,3915.0464303559156,4002.975234198165,3790.098266083893,4792.808924037216,4265.367982020547,3849.4424974131393,3837.6366718535796,3836.677632811006,95100.03119909295,3959.035737820562,78492.54614120457,280.16521222522357,128.644356211004,466.4021301269531,43.87787628173828,33.650115966796875,0.550000011920929,0.20000000298023224,48.35248565673828,16.66666603088379,0.06074292277011925,1
1.0024190253239442,0.0023536069666363884,-0.004590310196727058,-0.0034940628596783333,3553496.5,987.3527777777778,1561.930547839506,39.52126703231446,3865.598432490439,3851.314633897518,3851.7624197475407,3841.1702890435104,3821.861311549812,3877.537461056083,3883.940136635841,3850.744445746491,3862.7257283811978,3775.514339153764,4471.706649297882,3993.6518085566454,3838.818827733934,3864.6516828999547,3941.845929396299,3964.1640233531502,3889.8574178054077,3892.5129207623227,3893.8814320288107,3860.5468224899664,3833.620249712596,3857.483916342804,3869.1217066526606,3838.850138026965,3855.2826781423983,93487.72484558757,3893.92661603616,15829.551993388859,125.81554750263919,84.80821504077316,707.4786376953125,97.79370880126953,103.1968765258789,1.0,0.6666666865348816,160.49330139160156,61.11111068725586,0.1905334068674098,1
1.029833136775144,-8.90704172163707e-05,-0.005426344948300605,-0.02790437044062845,3576332.5,993.7019444444444,3231.6603295524696,56.847694144551454,3852.1633122824524,4586.734151909387,4761.988736985581,4753.85052089995,4511.223995896231,3948.0438902706096,3894.2727903728546,3937.913348831808,3972.3310808651136,3879.9159700309847,4707.940039448858,4099.076279547216,3896.0635993500277,3895.2027241147257,3952.0111108764754,4100.943512090006,4032.184458963746,3953.4252268360688,3912.414979482114,3962.017622817829,4011.386780178007,3871.217878803765,4225.794514263977,4720.110471737454,4732.678766482708,99878.48472395536,4166.836230533519,111764.27184323233,334.31163880910924,85.60975609756099,700.8546752929688,138.3038330078125,134.46405029296875,0.8333333134651184,0.75,221.98048400878906,122.22222137451172,0.11192184746200756,1
1.027066359882421,-0.006519921967046222,-0.007187178003137994,-0.017085303759575555,3237946.0,899.6713888888889,6602.555625848765,81.2561113138499,3650.2383381517325,3657.163190528202,3663.973167854347,3668.147663042848,3672.3378302276283,3673.170619093533,3694.678414028923,3684.185262636773,3750.7776793161142,3446.14566919758,4795.358868802353,3832.4978114086,3591.752013956985,3515.668165993344,3487.950556539477,3429.0300244188747,3250.6232408389637,3401.813947246558,3602.7667873152704,3654.271681973886,3675.217811843825,3678.674933037079,3638.8489082916653,3668.5399251378058,3663.3205995631715,87790.37364158808,3657.886124417822,68882.54441944654,262.4548426290636,76.11589663273296,788.2716064453125,133.59527587890625,117.1611328125,1.0,0.875,226.12245178222656,77.77777862548828,0.05292171567759238,1
1.0065257218212214,-0.0019122465107433183,-0.0030917651418645897,-0.004946791033584609,3581855.0,995.2291666666666,2317.4988715277777,48.140407887010866,3951.905161809548,3965.6153527015585,3970.4984528586733,3972.409013982727,3978.9103276508204,3934.2574912486534,3927.5995381520543,3939.959205144908,3977.9211453348576,3822.994758920292,4573.328739074968,4020.626458727413,3809.9153169598203,3814.3491366839717,3826.502298773919,3849.4470355175545,3950.6017353329926,3962.5438049453373,3956.5722311357886,3979.8203595323507,3978.5735028925224,3957.792558693393,3953.566651041255,3974.013579297134,3967.2876911535404,95057.4151210845,3960.6804619026425,19067.359973049508,138.0846116446344,88.98876404494382,674.242431640625,68.6580810546875,45.81565475463867,0.699999988079071,0.4000000059604645,69.05445861816406,69.44444274902344,0.09624457218359493,1
1.017751343086802,0.003919854488758723,-0.0006467926682928837,-0.024413742500844066,3527098.5,980.0125,4040.640677083333,63.566033988942024,3971.7528851967154,4508.976799403854,4603.205588979839,4375.426881866435,4034.1307460672847,3819.947612491707,3835.719038955288,3835.1891566303157,3823.620310528664,3728.479981480449,4772.72649301267,4048.420768182915,3757.0889622112963,3751.6273445595307,3854.665787305723,3914.1518875013517,3937.4364955798087,3877.96843572586,3858.9451634461925,3858.9456164979492,3899.837466870842,3710.15085394148,4540.925221444315,4330.78383773204,4644.050399861793,96986.27209294507,4051.766949418973,104333.1968229853,323.0064965646748,83.89602629220198,715.1709594726562,114.82373809814453,91.22955322265625,1.0,0.8333333134651184,192.03533935546875,127.77777862548828,0.09599436765544607,1
1.017873389018954,-0.007991532758158351,-0.007317521761718882,-0.006020094060314523,3501010.0,972.77,2869.645988888889,53.56907679705605,3843.5940121075973,3836.6226167983805,3835.3779548194584,3830.2015121295567,3832.9086238794207,3853.1933322269597,3842.785279647426,3847.727857783824,3892.8996485901957,3726.9202763220082,4594.319532849831,3932.467886849305,3777.387932005407,3777.6589996416374,3781.224160016278,3832.6710744425523,3906.777821533152,3956.8463690226463,3865.877207351396,3848.9535448660677,3864.3560840425,3847.7514673999763,3843.6267409215425,3830.6857674572143,3838.124332780721,93000.10086304089,3873.6384014194023,23848.50004918993,154.42959576839516,80.74766355140189,743.0555419921875,69.86814880371094,58.579795837402344,0.875,0.75,110.25276184082031,45.83333206176758,0.09491529930861281,1
0.9922207118062465,0.004677624498373221,-0.002269343855129146,0.0017901749115922262,3573476.5,992.9094444444445,4026.7162441358023,63.45641215933818,3900.8157467101532,3929.211681759699,3934.191781542897,3954.465335238835,4033.058551568071,3965.0771144140144,3939.8468317293127,3922.402307006363,3966.298819052018,3851.3916328424502,4893.736227211515,4143.008387351112,3859.7937749710663,3826.9253681205228,3895.3311844192112,3981.0477101382207,3986.6064279528837,3891.6557896221984,3878.539033959264,3856.5623110807983,3857.8069212827236,3912.8983878863382,3878.8143588932107,3968.1015537313515,3924.6397001018217,95239.49921518007,3966.0890775434423,40170.11070480614,200.42482557010283,90.34220532319392,664.1414184570312,107.76173400878906,121.6315689086914,1.0,0.7777777910232544,201.86883544921875,77.77777862548828,0.13382859152707424,1
1.0017171430973877,-0.001650874920618774,-0.00016218953718870238,-0.003270053092267822,3549895.5,986.3797222222222,2116.034977700617,46.000380190826874,4004.9856589855963,3971.5575294721,3969.034797362567,3964.9682302513274,3960.587187577192,3957.7304142295625,3960.42552218589,3986.3097346882982,4006.884495912615,3857.658018931249,4591.775882160353,4107.415775132483,3849.567343754209,3835.6017367523696,3870.0615609051524,3882.1296511690716,3898.7699838094795,3970.441780061652,3995.515938697388,3980.075372081279,3973.2644389590387,4007.520610608791,3989.0356195239033,3964.4188229719725,3970.3809770543357,95538.43376521791,3981.044683329515,19047.351794411945,138.01214364834692,83.69597615499255,716.88037109375,79.6065673828125,68.12952423095703,1.0,0.4166666567325592,109.0786361694336,58.33333206176758,0.10489836267696662,1
1.0259166921176688,-0.004999246055499495,-0.005492420969996479,-0.019078269448130073,3252822.0,903.8252777777777,7934.688638811728,89.07686926925378,3748.979791173164,3730.3071840780954,3726.383223433375,3717.0308519192076,3705.163999204743,3737.657699281886,3756.5488651641335,3757.612342122291,3806.7859997840433,3531.96778873517,4904.226822883081,3921.660973970988,3630.7715061442286,3586.421467333697,3538.016556837935,3453.7266349656543,3262.9346606290005,3471.363417967031,3680.0086737477977,3728.8896715821197,3715.686370527318,3727.8594884082704,3753.2153704324,3715.512744319325,3729.981885598493,89299.23315185762,3721.548559609738,75748.05486820453,275.22364518370244,77.3731343283582,775.4629516601562,81.38014221191406,67.6843032836914,0.9090909361839294,0.6363636255264282,118.669677734375,34.72222137451172,0.03661443300702799,1
1.0058302113646318,0.0014241951580638652,-0.0005421314630320706,-0.010069083792366856,3563682.5,990.1841666666667,3696.8413604166662,60.80165590192973,3844.225653330362,3864.169833589935,3865.6827510174608,3864.3845605625643,3850.6333814433,3851.9575190994237,3856.6762226184946,3864.9216686788195,3902.560828419615,3762.6955150880976,4824.079646130927,4078.377032876932,3817.873865914571,3799.833894643489,3835.3532971470586,3930.387061314465,3913.8473532603753,3827.1368250748856,3819.4030954579603,3835.1991892950878,3841.480355950683,3840.916379058838,3859.9524378433516,3861.8383877151628,3866.462562918501,93624.70521032592,3899.201972738015,38738.185061496544,196.82018458861515,84.09703504043127,713.4615478515625,103.55644989013672,77.54457092285156,0.9166666865348816,0.6666666865348816,132.85020446777344,33.33333206176758,0.093045465101701,1
1.0192062677463385,-0.0002727643132654623,-0.005473970478434863,-0.01688050295799539,3595429.5,999.0008333333334,5929.861388194444,77.00559322669,4877.072045385267,4215.6849238753575,4029.8798479525453,3973.7187123154818,3936.631286736521,3916.3258455252353,3870.401442542033,3986.622212022487,4073.7740936716837,3958.7903921924435,4995.142353024131,4117.976984812293,3863.506308374328,3868.5246174722474,3814.640133938364,3796.06600515966,3832.4977149253573,3871.1396670489203,3981.8087240210943,4017.994354438516,3942.9923865483906,4235.082617646446,4781.537891240353,3969.2450123845174,4043.248664698213,97510.14388291015,4078.812169518075,101229.84895745752,318.1663856498004,122.10651591788158,491.374267578125,53.937660217285156,45.94309616088867,0.7222222089767456,0.2222222238779068,65.88404083251953,22.22222137451172,0.08683273346516104,1
1.0010459141567178,0.0005160087255991815,-0.00011990912965859139,-0.004780175357966696,3609150.0,1002.8266666666667,6313.459955555554,79.45728384204656,4047.6414495555164,4059.3651531858495,4060.00435235142,4066.344030825589,4061.1921511054634,4175.712702628931,4206.704757286895,4206.480459982529,4227.123507973396,4225.028542001808,5029.5065560367075,4409.284696018171,3907.600497567784,3918.0599204371547,4061.3998637435943,4121.13703341396,4064.958112082818,4061.7925484259677,4012.626808522673,4045.0633134254927,4067.6676036110425,4057.857969747025,4046.4966815966686,4064.665405047216,4064.402930633035,99212.09485711242,4130.724681888269,43940.61040308659,209.6201574350296,101.40845070422536,591.6666870117188,91.70173645019531,82.07804870605469,1.0,0.800000011920929,163.966552734375,55.55555725097656,0.07377819231461936,1
1.0082837677509309,-0.003104788590885061,-0.002656858165803085,-0.0058813221150058005,3534174.5,981.9872222222223,1931.6403922839504,43.95043108188986,3982.77867522152,3968.0949372505847,3969.0901604676474,3972.231753023654,3972.883069608351,3943.3974546444883,3948.3984493419093,3933.0032692127916,3982.33942263497,3876.807810108039,4598.98685480864,4066.971494440355,3922.1894668963505,3889.84523674281,3911.056709725405,3971.21318478913,4029.0449870874236,4082.900081274231,4010.0160356228,3983.951982087092,3998.835552177829,3993.8081520114683,3969.3519824344253,3972.548718487583,3965.9001098778003,95941.30615742764,3996.6258219990914,17220.115328791166,131.22543704934333,82.23350253807108,729.629638671875,90.77852630615234,93.96134948730469,0.8571428656578064,0.5714285969734192,123.25054168701172,22.22222137451172,0.1720797287599988,1
1.0007774547016952,0.004238299916004142,-0.001614754144522025,-0.0068501640764157745,3551588.0,986.8205555555555,3898.7944663580247,62.440327244161885,3909.096446098835,3931.4864652816455,3935.204870685647,3937.6789438900423,3967.3784800475855,3873.473785454272,3867.731994337565,3853.1803789145442,3927.083603041226,3799.413407234526,4782.955723434305,4086.1380248204237,3849.2029969828263,3823.2171544220505,3885.11122369262,4042.5914600246815,3983.8531174229174,3857.688088688391,3882.2663996831443,3878.738457890963,3860.1103742196997,3882.3801886597976,3916.6612118415255,3943.733367512569,3928.6602741084102,94686.1580782866,3944.2014575356084,33280.26155035381,182.42878487331382,96.55172413793103,621.4285888671875,118.76620483398438,103.3083724975586,0.9230769276618958,0.7692307829856873,190.13072204589844,87.5,0.13808688986737475,1
1.0073909845690403,-0.0033832761306483183,-0.002983170569687829,-0.004430064662056273,3569084.5,991.6780555555556,2266.2399628858025,47.605041359984156,3924.731885968461,3938.3806464556924,3940.5137675919495,3943.1139381016887,3941.8214840606734,3908.9474291266743,3927.234297980188,3895.727867197623,3928.179679239295,3823.3650121390424,4464.587016384314,3957.100519025158,3814.7168407973495,3792.5936541324954,3788.6375946373983,3825.6465702407854,3890.2281173907413,3919.6285011929035,3928.791704514026,3951.572282511879,3924.0569591680323,3917.450605626845,3931.158904846057,3942.787927967113,3937.9519377952633,94227.58323220978,3926.357005763666,14613.06966946554,120.88453031494782,82.78301886792453,724.7863159179688,75.29193878173828,60.68303680419922,0.8333333134651184,0.5833333134651184,95.2208023071289,44.44444274902344,0.15163714181684326,1
1.0018847804572388,-0.001456241425085906,-1.9096189248135654e-05,-0.003823137760228661,3557428.0,988.4477777777778,2140.5639395061726,46.26622893111316,3961.539242305955,3959.123448267878,3956.3294388194554,3949.3939645401765,3946.0726397206463,3973.5049601115593,3963.244574714763,3972.3330902836065,4026.5261358487155,3852.6557113187923,4660.05698239053,4118.1611446713505,3857.8431491036354,3791.897326207325,3794.9857770593244,3829.770979176975,3897.922797234472,3920.93212735572,3937.928244762353,3967.1387861745843,3942.6781216474765,3947.0191688713685,3969.6028979097014,3949.1152396637276,3960.6287439513217,95145.32069898277,3964.256187684457,24829.59683657617,157.57409951059904,86.46288209606988,693.9393920898438,45.84011459350586,36.23619842529297,0.5555555820465088,0.3333333432674408,57.82405471801758,16.66666603088379,0.09834593460622613,1
1.008381184579645,-0.006548082404024748,0.006309906076060625,-0.01152706347526112,3553187.5,987.265,3820.7314416666673,61.81206550234887,3819.5157384046347,3837.027882667025,3840.7821599936324,3843.7338530133347,3846.131928942298,3841.779714816605,3828.548012054284,3818.1435849939116,3879.1657767492325,3767.0368996093057,4725.512338599632,4036.4818453108746,3795.719110454354,3761.2159946651145,3800.0751022477243,3910.1967490351335,3906.3525664616054,3837.4568147489226,3837.83964921861,3868.3018990347114,3843.601541294641,3826.108667890508,3823.0457675214548,3844.0328745266393,3840.311708772705,93148.20445743823,3879.1247272410756,32513.30535006857,180.31446239852357,97.5,615.3846435546875,121.3870849609375,84.05715942382812,0.7272727489471436,0.6363636255264282,135.9254608154297,122.22222137451172,0.1071550453255091,1
1.0180240405733767,-0.005074356540394353,0.0018585822345039836,-0.01817419372784815,3525629.5,979.6119444444445,6108.764690663581,78.1585868005786,4778.689550760593,3896.288853404363,3848.688218104604,3840.6020012531626,3851.3727896316714,3895.74559051456,3849.415530925639,3913.3239314340885,3981.512317374273,3891.919246225013,4897.648680359204,4085.848172611945,3860.155021761377,3888.769436396793,3887.601957280478,3920.2153425795623,3910.2984196117,3865.201763289745,3931.7095229634915,4012.0299436029113,3806.588399043262,4889.121848088074,4209.721574525898,3842.1676986811963,3855.1247798387362,96292.85342496268,4024.390423610493,101545.58246640261,318.6621760837056,118.14038286235188,507.870361328125,71.65164947509766,76.11503601074219,0.7058823704719543,0.4117647111415863,107.89462280273438,16.66666603088379,0.08352649155469694,1
0.9999597806101965,0.0013763029646191502,-0.0009999408576887286,-0.003710870199275121,3665718.5,1018.5311111111112,7525.981809876543,86.7524167379592,3995.615088123118,4066.0485969331507,4076.442106274773,4073.18390116524,4078.941066710871,4021.576795118197,4037.0088047008053,4038.230252173468,4088.615567419408,4075.5395591834795,4822.874750939259,4075.955420221103,3868.32407339701,3881.5690268926664,4017.860486739795,4182.598682002035,4159.675969603146,4067.2741118414915,4001.902573752527,4052.809904229018,4059.7014285230894,4008.5696433473727,4031.218512171217,4075.094325767087,4075.6574242644265,97896.65181529999,4077.29152285975,27441.074463083754,165.65347706306608,104.22195416164055,575.6944580078125,151.65464782714844,121.74767303466797,0.8666666746139526,0.7333333492279053,185.25369262695312,118.05555725097656,0.20996502448623167,1
1.012146874543752,-0.005761922400600182,-0.0011324818660108716,-0.008607721848869355,3605400.5,1001.7777777777778,2614.6283950617285,51.133437152823284,4092.7659403991584,4040.979167040142,4027.947783850731,4018.978438698459,4008.498572011176,4043.1949534438763,4028.2605671683323,4039.668116610302,4098.883194341017,3962.0726116749356,4855.182391846773,4160.801038550502,3993.729620598486,3977.8377415224386,3995.960859668224,4013.0959441548434,4110.819632734378,4238.765000559954,4168.236021056807,4110.093660621265,4090.219239635614,4080.0098874650375,4083.1007334022843,4017.4648894282045,4031.4039356396047,98225.88500410317,4091.518797684902,28316.97513229723,168.27648419282247,85.9796550199027,697.8394775390625,112.90813446044922,113.11125183105469,1.0,0.7142857313156128,170.35275268554688,38.88888931274414,0.20140853400238906,1
1.010009557014118,-0.0003600354814895614,-0.004851616658451324,-0.008258740699443295,3564885.5,990.5311111111112,3776.252365432099,61.451219397438315,3966.5750578201687,3981.554243939995,3978.101480809389,3978.2846548311645,3979.3715791390673,4074.024087075385,3999.1444340669095,4016.395529025958,4042.621140426184,3877.9375744787635,4914.4480835371605,4193.125027665523,3938.0818198896372,3886.0932074663624,4012.582618796151,4117.692825501087,4002.9341333599386,3923.8423109824207,3998.755450325509,4009.4651854345457,3958.276405571649,3941.766208537206,3980.1977381303077,3977.8565089810463,3983.859025433205,96757.76928959806,4029.3194532489897,36812.5656065102,191.86600951317615,88.88888888888889,675.0,87.6903305053711,52.770423889160156,0.8461538553237915,0.7692307829856873,110.99620056152344,43.05555725097656,0.13676439825558423,1
1.0332801343502405,-0.004027691294400588,-0.009078632951387616,-0.02396460095902682,3261716.0,906.2697222222222,7994.7564165895055,89.41340177282993,3719.0327409919473,3722.9790698726874,3720.4825103085773,3719.3789839268384,3700.8318191978738,3729.7992320930284,3723.603821243126,3669.793423637589,3749.7883378326924,3475.2180894882645,4860.045137455959,3841.2533999588895,3601.4263500645893,3579.8277626053186,3501.142151213355,3367.876278336299,3271.005734005734,3541.7471280841182,3649.0086020503195,3684.9912721386268,3688.9151200495835,3690.7411126400225,3733.26092845379,3716.008143702423,3721.1899532537623,88659.23575548256,3695.173884104216,72402.34853954654,269.0768450453263,69.77973568281938,859.8485107421875,166.6429443359375,132.54075622558594,0.8999999761581421,0.699999988079071,184.2967071533203,116.66666412353516,0.05963362066441052,1
1.008461828379733,-0.003738273188014696,-0.001635672914014554,-0.006558980926982853,3555356.5,987.8722222222223,3526.1370061728394,59.38128498249966,3603.0506289929026,3617.6581259628347,3613.7995096115787,3628.4328881356055,3633.2916106880966,3835.456025042913,3859.456088086339,3882.015571664956,3878.041744039424,3781.0880535104257,4461.053002879564,3884.6123567214368,3629.889026316506,3650.3869293435855,3612.9089997994292,3589.4259931470233,3576.937404185974,3645.8606114937443,3637.8042860891187,3573.5643199465353,3636.635558906738,3679.205299719494,3588.509258380828,3626.7064707783693,3622.5999002950903,89135.56439909452,3709.93558654954,34101.369098655676,184.66556013143241,86.49885583524025,693.6508178710938,60.32529067993164,41.5904426574707,0.9230769276618958,0.6153846383094788,82.78666687011719,41.66666793823242,0.3494685394087878,1
1.0088036748750075,-0.002437721656137572,-0.0018467469212081432,-0.007907020461258926,3522192.0,978.6555555555556,2563.760802469136,50.633593615989135,3838.7011141041476,3833.2148089991647,3834.454654384664,3835.304539426782,3833.0280980304688,3830.9754851683283,3838.5122823121155,3839.7871412426143,3903.0585690091175,3734.87486987365,4601.148931252107,3970.032072415177,3782.0054121640574,3775.6866793655754,3806.9314107752157,3848.6585791937596,3913.5847164401603,3984.3918039928494,3892.1548611838653,3847.876456078001,3880.368363458932,3862.6210766187414,3829.9249190432374,3834.7641246979183,3835.0025290626168,93150.21167670988,3879.4825399317306,24502.15733866802,156.53164963887662,88.01955990220048,681.6666870117188,88.14095306396484,96.00204467773438,0.7777777910232544,0.3333333432674408,128.34683227539062,26.38888931274414,0.14920801720800894,1
1.0101959359984845,-0.0030029742912935464,-0.0013178576509884233,-0.009236638803788584,3554124.0,987.5241666666667,4151.546082638889,64.43249244471991,3842.1802287082455,3839.5347745371646,3839.6710787475367,3843.279898938772,3850.14931942668,3829.404827065708,3849.1554869111264,3857.1473954245907,3900.2806197739606,3798.684390920442,4843.5329962536325,4018.899353383503,3816.357140876831,3801.098716775168,3838.4205396899706,3924.347270679463,3925.9133471736127,3828.0644223729796,3809.9387258623838,3868.178170776582,3874.267074714169,3849.3709997141314,3835.0525106840405,3844.4902154092238,3837.758599955164,93525.20869044338,3894.6071241910035,39608.276302344595,199.0182813269791,103.27326222876057,580.98291015625,142.19503784179688,99.0264663696289,1.0,0.9166666865348816,204.3067626953125,125.0,0.10278770587067941,1
1.0072554480554827,-0.0006827365019366876,0.0005461537908711322,-0.010490523124893267,3474922.5,965.5208333333334,3875.735121527778,62.25540234813183,3779.9911071103593,3768.406597836792,3767.940332868002,3770.516050998447,3762.5346099936405,3824.116764315626,3841.3240228604172,3820.8840402744836,3849.841447017811,3712.070593861286,4767.536906637564,4010.298610287712,3719.8048649306556,3755.82675701234,3823.712527529629,3877.2288263686078,3823.77107672457,3750.296583425352,3750.670541615634,3748.49501388915,3755.273075682183,3783.478076042668,3770.927876348803,3768.6902082521465,3770.057881174029,91998.66989891572,3830.947775722316,40083.0309662845,200.20746980640982,84.60379632419405,709.1880493164062,144.51174926757812,146.74246215820312,0.9166666865348816,0.75,249.5546417236328,130.55555725097656,0.10981001587755992,1
1.0051797034491168,-0.00042933289080788404,-0.0026734929417750195,-0.005531226657524427,3512775.0,976.0397222222222,2281.6636999228394,47.76676354875678,3831.263376102136,3841.8098314064714,3840.356896466091,3838.957138184516,3843.434346591443,3879.8313667977586,3855.44571253733,3854.0138472758117,3905.674135835342,3742.375043290391,4522.360721322972,3974.617160497407,3737.3594302317856,3699.910490295535,3687.353074639371,3705.350185593365,3762.361216964826,3809.6250124238495,3829.3650421216516,3841.888134670132,3831.854186873298,3824.813275756819,3839.727206748473,3839.7217930125917,3842.9403119462004,92345.3070935614,3847.2963575034228,23093.181459873827,151.9644085300036,86.55980271270036,693.1624145507812,88.38408660888672,59.2786979675293,0.8333333134651184,0.8333333134651184,105.49767303466797,69.44444274902344,0.09128500534270687,1
1.0066951999720921,0.00030325681874813506,-0.002670201950300014,-0.0077189247578277175,3579930.0,994.6963888888889,4132.948653626543,64.28801329662119,3985.6494642396037,3972.1076838554145,3969.6109518684025,3969.7095724587857,3974.45932865882,3957.695609176555,3946.3074823480106,3931.588169982677,4001.4432887745193,3887.1485766281944,4893.797952397864,4103.543925718872,3914.0503258735685,3929.620676043719,3958.772355307564,4028.2475561715128,4014.1816059100593,3949.168499131556,3930.400401408337,3955.8020540421094,4005.7955555378817,3996.3181708623183,3976.5710423504306,3970.358403365591,3969.8682715441596,96214.45805576464,4007.6886769462603,34419.56398101314,185.5251033715199,95.29411764705881,629.629638671875,114.00701141357422,89.856201171875,1.0,0.9285714030265808,172.81643676757812,83.33333587646484,0.1025478254538425,1
1.0665798877179007,-0.02027052713687763,-0.02109428168190419,-0.030150594627562036,3255781.0,904.6347222222222,6717.183516589506,81.9584255375218,3478.262560252703,4360.742495916382,4546.079105834208,4827.399861002039,4994.461561195563,3793.3645036880457,3670.163797825441,3639.0123769694997,3708.9827166643063,3444.92021162381,4652.876970269806,3788.5281088842444,3535.8139880776394,3507.4233333821994,3451.68471424575,3372.865672112568,3185.598551588161,3376.74704488185,3580.080727718715,3611.512765373956,3646.12459059032,3684.4065434852405,3582.3217737627842,4850.156281600684,4416.735262294473,92758.7666079668,3868.2506207696156,276497.2817498167,525.8300882888091,81.44796380090497,736.6666870117188,109.13379669189453,102.6081314086914,0.875,0.875,174.07992553710938,69.44444274902344,0.05155780966485001,1
1.0160160955020399,-0.00023112274323401654,-0.0008023133649846217,-0.018627918478745755,3562286.5,989.8144444444445,9937.296680246915,99.68599039106205,4574.622877379492,4058.5673515809126,3979.209150636699,4009.686480097914,3845.442571249735,5327.627079932319,4518.475911332896,4090.833280548516,4129.739277660155,4332.678925224187,4583.7780389202835,4591.634106601386,4453.316197978175,4824.249556653732,5086.815416864336,4243.696957684394,4094.7441501070693,4154.962934873231,4263.843626722955,4372.520390682655,4291.199109817036,4551.1150744256465,4301.839178991448,3971.169890498079,4036.616708129527,104382.76445183827,4347.535369783711,121805.16190691279,349.0059625664192,165.97145993413832,361.5079345703125,174.00149536132812,160.09149169921875,1.0,0.6666666865348816,264.2103271484375,155.55555725097656,0.17832050770588878,1
1.0049622918658485,-0.004234249015356765,0.004211999008656361,-0.008353718144658167,3555742.5,987.9888888888889,6163.518209876544,78.50807735434962,3808.3580562659895,3814.855128649384,3819.1986492783312,3825.082057056644,3835.3113599209664,3730.695033703102,3700.2721807190223,3774.7775002145736,3838.242246522848,3712.7904972032275,4705.978059083092,3913.052018743122,3716.728821995398,3681.520979598735,3676.817022521464,3696.8145818939806,3732.4044457295254,3775.1920343961788,3782.4900067285193,3772.404156603343,3700.4885395420333,3796.9992404814684,3802.434153740004,3826.989991323506,3811.462905442093,91441.44918650252,3810.054386694262,36874.42004815103,192.027133624785,129.72972972972974,462.5,46.15835952758789,20.851276397705078,0.5,0.1428571492433548,31.056499481201172,22.22222137451172,0.11289889292117572,1
1.006705887486817,-0.003223932575354426,-0.00045768339231190346,-0.006313149523579964,3537642.0,982.9494444444445,1589.772999691358,39.87195756031246,3913.7800853611234,3877.7050786758796,3871.2800416643267,3862.4558974973443,3850.2340957219753,3878.152327177877,3878.2987403873317,3873.1744661731595,3928.9797831197907,3826.0491493703635,4507.4111671591045,3986.0624055825506,3891.771676807037,3889.337651103253,3904.149797537253,3956.929738200528,4004.9134390600575,3933.86359958108,3893.3796430150796,3872.245949872418,3913.067821294231,3912.589783014932,3907.700880659061,3860.9413276593295,3873.925814396665,94174.54741021286,3922.73601440367,15832.305779008695,125.82649076807593,92.44879241822073,649.0079345703125,113.39715576171875,92.73750305175781,0.9230769276618958,0.8461538553237915,169.67897033691406,56.94444274902344,0.13141454985438392,1
1.001503702348612,0.0004267941362168016,0.0014315587965139831,-0.006791889786809733,3559154.5,988.9625,2455.3049826388888,49.55103412279999,3881.8645650341914,3885.5045733059687,3886.876673931841,3886.9693129291795,3890.4791655247,3911.1318123719107,3881.1488862692463,3931.3378889014966,3992.4349379495366,3800.8739013790073,4600.615062925631,4004.4545185814295,3781.2885831302688,3758.7181387679557,3771.3803509587315,3822.495138782769,3895.307060222338,3906.766302543622,3890.629005020498,3900.3420339341023,3910.8525091938423,3891.6328401416713,3880.010166779527,3887.5313650821527,3888.6757980206257,93854.05041015483,3909.57282366729,23116.5707627922,152.0413455701843,85.79285059578369,699.3589477539062,63.46621322631836,49.78251266479492,0.9166666865348816,0.8333333134651184,104.92317962646484,30.55555534362793,0.09418645653952848,1
1.0101929784565862,0.0018490342331304924,-0.0036205205020583627,-0.011899476349833,3560840.0,989.4419444444444,2571.401073996913,50.708984154653635,3938.4922989821966,3924.669333761137,3921.049769973488,3921.39529058424,3920.0324781463355,3944.289694597647,3931.5658022340995,3913.8598198174413,3979.007197937791,3801.1851390706997,4682.3814850539,4022.078415426382,3856.3113315552023,3844.4013769139647,3870.030378675892,3918.5733998023466,3966.4329318646196,3948.295147115558,3931.3012799604558,3946.4170235575953,3932.251983466401,3942.160387744657,3931.6524468272946,3920.720192314133,3922.92707758464,94900.77199468469,3953.259267318725,23982.272968591275,154.8621095316452,85.49838071248651,701.7677001953125,77.03717041015625,67.70317077636719,0.800000011920929,0.6000000238418579,110.63439178466797,41.66666793823242,0.09487328952655018,1
1.0169821381836377,-0.0025462484285395113,-0.002518115462192983,-0.015287323078011287,3588762.0,997.1527777777778,4171.654436728394,64.58834598229308,4117.864136882806,3849.6885278011127,3838.155428094973,3842.4254072031663,3852.1108586884234,3971.1994905015026,3956.3050717280034,3923.996185739186,4012.0495790264767,3900.445620083633,4911.91750830191,4118.226273295418,3934.4522730391714,3919.4351060465115,3939.7746841100225,4026.7339139082706,4009.781751159217,3972.034278748195,3980.1376878060323,3858.5766842534113,4374.774154208198,4593.307827045134,3890.881612545938,3843.150805547822,3844.286068297338,96500.6358314718,4019.268437362475,62154.71365091088,249.3084708767652,97.73755656108597,613.888916015625,125.92252349853516,127.27645111083984,1.0,0.8571428656578064,198.8475341796875,93.05555725097656,0.07881895666135152,1
1.0123603121494191,-0.002259940339160867,-0.004384951726981514,-0.009128620286410809,3625869.5,1007.4636111111112,2166.0642314043207,46.540995169896405,3984.636112110112,3975.202548505592,3974.489047966049,3970.8183704984167,3965.7594967277446,3951.605715960042,3964.8154621125504,3975.870827829781,3998.225388987591,3859.1639267999226,4726.368665002805,4060.7001248278843,3894.1797876097253,3907.429419399217,3897.9204075305215,3931.1748947365945,4012.579381333303,4068.318228630682,3989.5018320002578,3977.0350571010904,3988.1266899018165,3974.756100075823,3985.888005380595,3970.3105006946025,3974.125912122652,95999.62089172898,3999.1600761538143,24068.803337262696,155.14123674014814,78.97623400365632,759.7222290039062,89.354248046875,69.33324432373047,1.0,1.0,152.7525177001953,34.72222137451172,0.09929371043323375,1
1.0257724389288723,-0.009080786411390132,-0.014551067504025857,-0.006549926718467066,3584074.0,995.8466666666667,3681.058711111111,60.671729092808214,3841.5482550874467,4485.864105935422,4605.853398395963,4808.314339302883,5066.396863958986,3999.704621196908,3892.222307533624,3896.7813549066364,3924.706329558756,3798.338597836513,4738.843858879864,4096.61568269987,3863.1836224167546,3895.464591467232,3933.1356452917385,3964.9504194894316,3918.8595387821447,3907.422114492256,3939.9663300484563,3946.706520698238,3955.6451395951153,3959.4670623263223,3914.6065644255077,4848.128796837186,4502.188046958945,99533.045957099,4148.196564324888,141317.65977561497,375.9224119091797,99.89327641408751,600.6410522460938,111.29873657226562,68.34249877929688,0.8181818127632141,0.7272727489471436,126.5975341796875,63.88888931274414,0.09268768372024104,1
1.009348891330821,-0.003649689921146993,-0.0032978779892730986,-0.006064629739083266,3492633.5,970.4472222222222,2223.4038811728396,47.152983799255374,4038.293015718212,4133.149375918094,4145.608770010993,4138.335494397566,4124.552302787179,3916.9987623780535,3896.2360329410976,3883.305525436386,3932.753728628883,3793.170226758468,4476.160583362641,3953.054447213379,3759.6587903108166,3702.2625026474716,3702.6245353408844,3763.771182604792,3849.313612974045,3688.1014752561136,3387.6604440639803,3724.7652481514824,3853.29238089109,3951.8199685845666,4111.618046979263,4137.3086444259125,4136.074371236301,94112.70577554041,3927.995578760707,47518.3961176487,217.98714667991024,91.62248144220572,654.861083984375,74.5841064453125,51.436832427978516,1.0,0.6666666865348816,98.71864318847656,41.66666793823242,0.11091038023173541,1
1.0276294560145758,-0.001577546261907384,-0.012357510222252814,-0.017485529763398087,3224706.5,895.9952777777778,7787.528588811729,88.24697495558547,3653.491894606792,3632.7838832461052,3629.5310346926717,3623.366578547145,3626.7762320301463,3610.447662399688,3621.0834917088737,3632.950351183958,3716.0780760189787,3392.636280757167,4799.260624453393,3768.822793831599,3498.9810353717253,3436.111133513451,3402.5398046960763,3327.9939540106393,3110.689466157976,3231.280799379291,3533.3711418050116,3602.3131544053485,3630.1807407104984,3652.8390422215953,3647.3886495404904,3624.1050148774693,3630.8822643484173,86393.71802503691,3601.4362041805803,82728.35816526349,287.6253781662242,81.02532041262896,740.50927734375,91.4873275756836,89.95429992675781,0.7272727489471436,0.6363636255264282,136.96392822265625,69.44444274902344,0.045337574276275015,1
1.003197585230934,-0.001983652697557933,0.0015153733815613897,-0.006154199202785818,3571161.0,992.285,2212.6493305555555,47.03880664467962,3966.9455969873907,3982.7120898079975,3982.5995973708923,3989.6980591501692,3997.4084358349096,3957.445824208881,3927.6469272874438,3929.318336644579,4001.253374192712,3823.1780953012963,4522.1316927917815,4044.800296408012,3854.890441792302,3821.1958249632994,3830.097812022104,3924.303044604674,3975.0563052093476,3968.0629446285193,3964.1427050464954,3994.464005771092,3995.6258618355146,3970.355383014338,3969.5446676650517,3990.3948837771427,3979.4378315077993,95389.51832357614,3974.5084015129496,15856.919071533273,125.92425926537457,86.7221106968741,691.8650512695312,81.68653106689453,58.98984146118164,0.6153846383094788,0.5384615659713745,90.46742248535156,30.55555534362793,0.17334860901998894,1
1.0115808348542064,-0.0024478013024376885,-0.0037007995380133295,-0.008816776481876757,3554945.5,987.7694444444444,3982.9540663580246,63.11064938944952,3911.3550084740364,3904.8214344898906,3902.940597073318,3902.5031109447646,3908.449887859937,3893.2209659554587,3887.4913258761494,3888.1045896996898,3936.1857528590963,3829.804802481752,4901.790459040156,4095.9213117216295,3840.675650156042,3834.2810350210502,3888.126574390255,3938.751202462181,3956.526030271678,3884.93763675645,3873.2860750074997,3883.994624672719,3912.5647868388746,3912.916503085261,3907.982162134649,3903.446299216836,3902.1161485391085,94695.45839652189,3944.087759001139,40578.9144982243,201.44208720678085,102.8081865778201,583.611083984375,88.87543487548828,68.57440948486328,1.0,0.875,158.01625061035156,47.22222137451172,0.07715140261016668,1
1.0235335857150687,6.233505874293449e-05,0.0029654922875981073,-0.029951090951165552,3562220.5,989.7836111111111,6200.632342515432,78.74409401672885,3962.1995232738263,4509.59219679267,4570.370139796762,4345.37266053286,3963.8289036470505,3853.289641729496,3862.314016603366,3807.539048279943,3820.7629072949353,3757.6769042723636,4833.164425355937,3913.5892357755774,3573.7036835237386,3583.138562853409,3635.775281749648,3805.782840451592,3884.8281461080073,3848.3415288216706,3786.3377548578756,3755.8963782536557,3843.744677895304,3597.8386328570205,4592.198872013604,4291.54074551514,4617.847139668833,95726.65051645297,4000.666953916971,129919.1393845834,360.442976605986,104.11311053984576,576.2963256835938,145.5579071044922,97.58859252929688,0.8571428656578064,0.7142857313156128,168.61134338378906,116.66666412353516,0.10677353409102602,1
1.0109040958288198,-0.0030720950797254007,0.00034452615283630053,-0.01173137360885506,3574582.5,993.2147222222222,5997.000283256173,77.44030141506535,3879.4747211652084,3923.590624942595,3930.226856523592,3935.7416753173666,3950.7003277505037,3921.552735278296,3883.7411868751415,3868.062460306279,3855.3104704733355,3690.0017483300126,4835.14111576436,4087.4511665965615,3803.9533768501155,3765.466846587141,3738.1916518717944,3879.4693059180768,3947.1847335958737,3876.3663835493835,3858.0396464213322,3809.782912927435,3783.5714802188195,3859.1327441463777,3895.7379169838505,3938.3300104354985,3927.336219098494,93940.1528477956,3913.7423327170977,41702.51916299244,204.21194667059132,116.82692307692308,513.5802612304688,51.99128723144531,36.56992721557617,0.5882353186607361,0.11764705926179886,49.153141021728516,16.66666603088379,0.12983955121416693,1
1.0027677911471613,0.002188800509922416,-0.005714163343434946,-0.002669640080374818,3541611.5,984.0516666666666,1885.6312194444447,43.42385541893355,3910.3643216979094,3947.6977258034626,3952.5409488624373,3955.061610182901,3960.5879894676245,3921.4009148024916,3926.936331837991,3925.433067966318,3941.288624923053,3822.604604794163,4533.357332867201,3983.5181411488225,3812.6918316153956,3811.384830543912,3796.6026332348874,3800.9921492279145,3902.2285864467044,3946.264601754253,3910.923755098707,3937.9311822684003,3964.620986503249,3918.688757257565,3926.6749624557074,3956.1545076821612,3950.1892169690473,94485.8628460788,3936.6455846164913,17859.866032091537,133.64080975544684,78.78419452887539,761.5740966796875,88.61236572265625,83.84523010253906,0.4545454680919647,0.3636363744735718,107.11893463134766,22.22222137451172,0.11633857721671137,1
1.0046192575807231,-0.0021063787582346256,-0.0011791121747591607,-0.004752686163083168,3602009.0,1000.8666666666667,2272.133333333333,47.66689976632981,3981.686223964585,3988.632476726727,3988.850001998746,3997.3317181644393,4005.0581712308594,4031.7657320361905,4028.6175692579645,4019.827598090049,4055.293997595645,3905.4608063743917,4624.243519036072,4099.702470546132,3900.3200949246625,3884.719249833337,3890.794789068292,3920.6299260965593,3996.7869632555885,4008.702034845558,4009.0677431046865,4003.6962473699446,4017.1823993915873,3997.87555945819,3974.127032310322,3998.1808235430326,3988.634469889222,96332.02727118589,4012.6875047245107,18126.75290050647,134.635630130016,87.17789506364483,688.2478637695312,62.902587890625,60.644615173339844,0.75,0.5,90.46632385253906,16.66666603088379,0.08413706903157832,1
1.0015463769872708,-0.0018366477695522434,0.0023991793062215537,-0.005550003594996655,3563914.0,990.2455555555556,2331.478035802469,48.28538118108284,4018.159400758309,3983.9338390777325,3981.7154037677788,3982.221129726593,3990.9570445555087,3948.868956291719,3932.900238799119,3942.083521507574,4007.15301760427,3832.3357346791604,4481.514213815959,4007.34012252493,3824.6700197292485,3811.6175940135317,3856.016157295937,3931.1434634699112,3966.191246660843,3996.4522044801442,4005.099879759736,3991.032996194387,4002.8140780403323,4022.507904694683,3996.078807398444,3984.101384066128,3979.6647328048516,95477.66102493525,3979.0629236686736,14202.549589378328,119.17445023736559,86.63992594878125,692.5213623046875,79.8516616821289,57.420475006103516,0.8333333134651184,0.5833333134651184,97.05010986328125,61.11111068725586,0.17797023053963681,1
1.0208557569831929,-0.002886088437444674,-0.009040533629951615,-0.012692749334036411,3218423.0,894.2594444444444,6104.803799691357,78.13324388307039,3591.7520022513604,3578.9781208881436,3575.5326393349324,3574.605075786899,3586.9228328232616,3626.4502503795647,3635.58887687783,3605.282262733304,3674.027351902621,3441.181611281569,4655.18574605475,3718.875945666178,3509.975179585348,3445.9282609022066,3385.4670504980413,3282.2208512916463,3111.433651742199,3198.66868439681,3474.9813736171304,3561.5491031079787,3607.5454272863535,3601.9224993648213,3582.6319207534334,3576.7090748419187,3577.9808301652224,85596.53020732524,3567.255864941341,69299.12335274757,263.24726656272725,71.32993095166617,841.16162109375,127.10527038574219,115.55054473876953,0.8999999761581421,0.800000011920929,208.08689880371094,94.44444274902344,0.05308070093830017,1
1.0109524684477138,-0.004268857641619421,0.00026808649775541464,-0.010247477560177047,3544744.0,984.9166666666666,1564.0080555555555,39.54754171317802,4024.293174837453,3894.672264272449,3892.7827108103993,3896.853421211535,3898.7589351762654,3909.78442191729,3891.5227692504955,3905.4806995522044,3935.0292252987533,3853.098678137488,4537.497004612055,4015.8855124281163,3917.4302718861027,3902.426961462198,3891.2527605438504,3940.7673743828473,4078.0832869356145,4040.4765707249785,3958.2288813749915,3880.838824030453,4330.497991192822,4335.222327822817,3907.097234162494,3896.989307255729,3891.7805842116854,95668.71431396651,3985.0700477396435,27608.057863505324,166.15672680787054,91.63636363636364,654.7619018554688,142.11114501953125,94.42269134521484,0.9230769276618958,0.692307710647583,171.67510986328125,55.55555725097656,0.09953330205042085,1
1.004316849487824,-0.000738346746219181,0.0008915729047605833,-0.007774552031284559,3551678.5,986.8497222222222,3642.391583256173,60.352229314716894,3964.4646077107536,3938.7911905701985,3936.528641862982,3932.6940941581674,3924.2588260887223,3906.3460973953206,3926.5426221421153,3928.766679805676,3973.2380166327803,3899.1952117832057,4885.702834021031,4154.653618292608,3883.439042623702,3831.1327721128123,3877.058430019249,3931.2844367546695,4001.6370246072393,3976.7410726862513,3957.5364465031075,3934.699945395796,3978.041565987652,3969.233727501083,3955.1052101523583,3931.9232911345193,3935.4489821059415,95584.5075931396,3981.378575521918,37197.50284136692,192.86654152902446,90.37656903765692,663.888916015625,114.53070831298828,77.30615234375,0.9166666865348816,0.75,137.07379150390625,77.77777862548828,0.09479031924386927,1
1.0249785221326193,0.004056921386745788,-0.00035967067299110987,-0.032361429351457534,3650827.5,1014.395,3684.391197222222,60.69918613311238,3980.9307382608813,4668.012002848372,4818.115089298038,4852.249114566359,4680.202369708158,4021.63993972393,3935.9422714632847,3924.363306700825,4009.6405005223287,3943.2511444665215,4879.879911655052,4195.095700112492,3948.147468721412,3958.5071007467186,3957.3924275453546,3995.4087422240536,4057.423782659504,4017.069861425393,3982.3699124912864,3970.536751247284,3999.0324097726602,3975.0197438671057,4298.1092048750725,4826.489175539747,4777.405852663834,101293.06622764331,4226.889380924227,129270.39322658164,359.5419213757718,94.28883230265552,636.3425903320312,122.948486328125,88.59717559814453,0.8999999761581421,0.800000011920929,146.71559143066406,84.72222137451172,0.07082652888417812,1
1.004457119818295,-0.0007102927352404322,-0.0009664058660919684,-0.006107692739484441,3556382.5,988.1491666666667,1369.886360416667,37.01197590532917,3913.7415764399548,3905.841645565247,3904.0765231204314,3903.738722892408,3896.993052320595,3913.223797813243,3974.2110286999114,3913.6358507962823,3910.114690943904,3807.680704961888,4468.126562363401,3966.044165531743,3866.454722134649,3863.6288157786676,3934.197040189714,3976.453479933735,4018.885181862958,4014.9908724343427,3929.82275134741,3897.138301472809,3905.5408533423024,3909.6594791544276,3912.490902715181,3902.461694758258,3904.124727947128,94604.34399232705,3940.5310857808236,13553.449242680459,116.41928209141498,108.2706766917293,554.1666870117188,87.5,0.0,1.0,1.0,175.0,87.5,0.12299265339897912,1
1.0055032268899935,-0.0003910235041184136,0.0009270589224501329,-0.009416039896140245,3480824.5,967.1622222222222,4440.9525728395065,66.64047248361544,3768.9978590628843,3784.106473947347,3783.765866631742,3785.0422127147476,3787.594296811776,3792.56034664341,3800.487597151029,3827.1522462090743,3872.9511128054537,3777.8749055434637,4770.756895421483,3973.181332724743,3729.838931078617,3702.5725475968043,3755.4013007352282,3840.2919512059566,3809.0844435936465,3747.489331803927,3761.596761529154,3820.382973805036,3811.4900145205656,3767.8134904502895,3777.142358041303,3784.9251307251134,3785.5604806150377,92040.78169152887,3832.7224344547126,39157.378937913076,197.88223502354393,100.39327851269218,597.6495971679688,129.06654357910156,92.42010498046875,0.7272727489471436,0.7272727489471436,150.02806091308594,100.0,0.13070670124822084,1
1.0031624632626948,-0.0007119334056612675,-0.003068801756150622,-0.002728270530471014,3564992.5,990.5486111111111,1569.248192515432,39.61373742170047,3911.111606506146,3909.0510061039,3907.990842210103,3906.427032189697,3910.7860279933498,3918.604866346974,3917.4822524234796,3946.048079666406,3978.203769187328,3832.2419514860862,4399.874234553023,4028.2345005896796,3879.971785941706,3880.1006348931433,3969.698340926435,4023.4904233917096,3919.6425893875644,3943.1328030817504,3958.7904077622343,3911.9452400641976,3913.613991474086,3915.831287103517,3910.786757979182,3907.346598078859,3909.047653402676,94699.37505278882,3944.3781873097296,10337.084036315857,101.67145143212944,91.83115699969632,653.3729858398438,158.11102294921875,105.9755859375,1.0,1.0,251.6116180419922,134.72222900390625,0.1439024468900098,1
1.009091470428635,-0.004048432805464464,0.0028665180207518275,-0.011303933197662205,3606453.5,1002.0611111111111,4967.631265432099,70.48142496737775,3897.669934428265,3903.535711578781,3905.5523191178063,3913.0154994474447,3916.027942306825,3933.826930730633,3940.0366910955418,3915.8215954881043,3961.8429379892905,3808.0685727048503,4918.571483079783,4138.3688870687265,3885.1570197310593,3842.5584421187,3855.028528947435,3904.8610750502644,3963.9563456036403,3920.0702270426336,3908.999628862211,3956.9995767365617,3949.243198763703,3924.6011686158286,3888.2447445037487,3913.093963077961,3904.7197643302416,95068.67733904078,3958.7948875368015,41615.44974818871,203.99865133914173,107.93254216114927,555.9027709960938,103.85079193115234,79.3600082397461,0.9333333373069763,0.8666666746139526,146.5041961669922,83.33333587646484,0.10331822608643354,1
1.0091407820187837,0.00039018308851522456,-0.00386146514424552,-0.009046966182782178,3540194.0,983.6541666666667,3882.3717881944444,62.30868148335707,3861.2770265187364,3845.9008598122327,3842.4591994832113,3842.5536113905832,3829.4136162358013,3863.4778320159653,3955.3590847370674,3887.7706563723923,3857.951763076946,3706.584496172607,4705.298151329482,4040.411024326838,3738.772208628611,3732.599356024049,3814.8426405748232,3934.8550351581443,3854.022065436817,3834.7018884947065,3862.2285888751658,3825.8548830570635,3786.289561609717,3839.5206675894233,3858.77590523674,3839.705860584495,3843.2772395285288,93151.62608924652,3880.156128890806,32761.892763269552,181.002466180076,80.98987626546682,740.8333129882812,139.90213012695312,95.38378143310547,1.0,0.875,191.72955322265625,86.11111450195312,0.13888886337321402,1
1.0041947959351392,-0.0005116327017605446,-0.0011804839835229258,-0.005854524059648437,3567165.0,991.1511111111112,1365.86327654321,36.95758753684025,3903.520588800072,3910.0093287140853,3912.612152302702,3917.3285894147457,3924.7158674136167,3922.9706260455596,3911.1413661413194,3876.4811635229416,3919.7170115733998,3887.6064905096855,4442.637535266191,3972.340326971238,3896.8093110512355,3914.285083209212,3945.592993179191,3965.587358871514,4028.7168692031255,3953.6235179162904,3904.315488594466,3915.4661186105577,3935.2699597835917,3918.8669155049884,3897.808204865326,3918.1988461967912,3911.0181606909364,94699.37049960728,3944.265594974111,11279.438373937872,106.20470033825184,90.7909820405044,660.8585815429688,108.55296325683594,91.31526184082031,0.8888888955116272,0.8888888955116272,170.88790893554688,72.22222137451172,0.14977297784909938,1
1.0251359422288082,-0.007463897985077104,-0.004277183987577095,-0.017155190752141575,3268075.0,908.0527777777778,5951.077770061729,77.14322893204387,3706.9142403109972,3728.2658279767425,3732.2261489370285,3722.8570335694935,3721.663551860036,3669.753467521738,3681.6442430890006,3692.239911337123,3781.0080353889025,3498.0978952200453,4742.807127571437,3792.911524146294,3582.580916122055,3539.349704497653,3466.2327499296816,3336.265377978467,3183.941896966189,3386.4282260943314,3606.28148255184,3663.6892493459936,3697.560674704785,3693.7114067146977,3727.6951675714336,3724.042480385208,3732.255292706386,88090.83886598886,3672.4169452999026,69291.8408905483,263.2334342186575,78.75372886973815,761.8687133789062,109.87373352050781,99.18806457519531,0.800000011920929,0.699999988079071,169.7674560546875,127.77777862548828,0.05514107383850153,1
1.0017636235427403,0.0020623851527855484,-0.0012720191901578978,-0.005977685720609977,3543960.5,984.7077777777778,2150.0196061728393,46.36830389579545,3942.9958289934953,3921.8044193245355,3917.0489647715535,3917.4048771629014,3918.0783464574906,3957.786261391075,3927.6095878061547,3930.3316295112927,3990.6648264451633,3832.52593017884,4591.814074719423,4037.8564470573137,3821.609551402194,3764.800231982687,3788.347206776729,3844.2326342518604,3901.8120949291915,3903.644972723512,3931.786922343392,3928.839832520458,3913.783644421937,3943.0625605468317,3931.343087340628,3917.173742249654,3919.638175485388,94464.67884855426,3935.839834031748,21284.165410873018,145.89093669886768,83.15072549600237,721.5811767578125,96.18898010253906,96.47530364990234,0.9166666865348816,0.6666666865348816,148.20167541503906,19.44444465637207,0.12468335669177893,1
1.0024158991566927,0.004584947156301184,-0.008434541672448642,-0.0019687063893212902,3583333.5,995.6411111111111,2210.7417543209876,47.01852565022629,3998.067215218037,3968.8252196410144,3966.549016854401,3969.361141063424,3970.3620509611487,3926.5037976787266,3908.512080002762,3881.5903120407165,3943.6557370757064,3815.8642417739784,4452.762976982793,3988.1572355635394,3821.1569804654837,3787.212496127332,3813.0767988280136,3879.4603129047955,3946.5142251107845,3961.5770045556305,3984.6957917861646,3958.6115565955106,3969.305731021219,3999.2893961032014,3978.860970807343,3969.600208539532,3963.1638750123975,94842.12082759844,3952.909454908546,14206.792339052068,119.1922494923729,86.66666666666667,692.3076782226562,70.66159057617188,57.259273529052734,0.8333333134651184,0.5833333134651184,103.6034164428711,66.66666412353516,0.14143336870268558,1
1.0054737702875136,-0.0005590379077883673,-0.003676965194177331,-0.004635861727491039,3570758.0,992.1519444444444,2120.0438573302467,46.04393399059475,3943.53210321567,3932.788978821368,3930.493263500987,3931.7100472802495,3938.110184316943,3943.4475126893017,3939.8122860511567,3964.2178997345272,3994.3073180322476,3838.3020646695613,4612.315561363414,4052.158855055273,3830.5977751160804,3818.9816984848276,3825.3963026012148,3843.385066510802,3916.3391410037484,3965.9870110983256,3947.0244983250673,3926.9717422033755,3949.5702842686296,3954.234233645937,3935.2092180394684,3932.6764438409855,3930.737321460678,94861.17209899166,3951.9322724531935,21045.569205681328,145.07091095626762,84.42573662056525,710.6837768554688,94.68826293945312,75.08425903320312,0.9166666865348816,0.75,129.91371154785156,58.33333206176758,0.08601219582295602,1
1.0097912630077617,-0.0021900461862803125,-0.0027965075263248736,-0.008241461437165035,3607704.0,1002.4166666666666,4482.020277777778,66.94789225791786,3953.467042815065,3949.8799019144435,3951.224750992499,3950.622114137249,3943.404015539111,3967.999143977497,3944.4004065766276,3912.7514627903006,3946.651558232474,3906.832528446269,4964.665433946277,3992.586738365344,3618.9432202224766,3644.6323081880637,3799.4204349386346,3958.4392807510635,3933.9426004318248,3970.3869311902627,3964.6305961946164,3919.090328540186,3931.4538701814745,3961.017686814631,3949.504118102145,3949.4459405514435,3951.7717610878553,94984.54477297637,3957.486566997114,50461.544829505154,224.6364726163255,88.6923562855338,676.4957275390625,125.38457489013672,107.74685668945312,0.6666666865348816,0.6666666865348816,159.6618194580078,83.33333587646484,0.06126860595374913,1
1.00896752848912,-0.0010691539405246887,-0.0021623224420714627,-0.009139070050744364,3544554.5,984.8688888888889,6005.97447654321,77.49822240892503,3877.3170357481163,3903.8717898484756,3905.706102568563,3904.5306600118224,3908.1496219547444,3824.070569391678,3854.1581029205695,3924.226007019457,3997.0921123326666,3775.3929328340596,4859.358151550864,4102.737595433748,3832.0250702941216,3797.69346854083,3734.3983350204685,3712.161485385737,3824.5459361032936,3899.1961108933942,3931.3908704036576,3915.6770483449764,3833.654080763248,3841.129976359895,3898.734523658429,3905.5416290040453,3902.0448709441007,93975.12313398485,3914.592163493238,43313.091610648175,208.11797522234397,114.21856639247946,525.3086547851562,79.52129364013672,65.68749237060547,0.529411792755127,0.3529411852359772,90.05313873291016,38.88888931274414,0.09986565887737603,1
1.0042355827935527,-0.0002901960129482438,0.00030391446665761665,-0.007637352421279801,3589680.5,997.4058333333334,4278.883354861111,65.41317416897846,3907.0031970315267,3927.7343544884825,3931.6838348629317,3939.6853917415297,3950.8042505238923,3880.7564599221396,3880.353417990503,3937.597842491768,3928.690065655343,3819.9048747177503,4801.959901785838,4082.5922647739703,3846.2933531134404,3847.9760987609666,3875.112334178929,3925.06190460924,3986.724351818165,3924.292162971969,3899.3299087759906,3905.457061612541,3937.7017501086893,3919.8357388309682,3906.481447199909,3941.214465195818,3926.8292746751767,94914.15947198414,3953.2430283134995,32425.70477541152,180.0713879976814,110.20408163265306,544.4444580078125,91.21461486816406,75.03856658935547,0.9166666865348816,0.75,132.92762756347656,93.05555725097656,0.14093366601547594,1
1.004333313125469,-0.003182614336132239,0.0023474325960074283,-0.006899041242894785,3592944.0,998.315,2605.571330555556,51.04479729174714,3989.321861474672,3989.845696772955,3989.5629031294593,3990.9845079057477,3989.4294424200525,3976.7936459907364,3970.365477669692,3954.0460685254366,4009.3849118719922,3874.9790953500114,4659.560575354984,4079.44942916711,3878.6043371723854,3831.5423598491843,3835.836145888387,3871.349177266457,3945.6140784298336,3972.6783512779866,3976.5173991742095,3995.744756825206,3990.641665559379,3984.891368794455,3989.9499758294182,3990.601530294929,3988.628555765854,95737.34810914028,3989.052932710422,21985.05270963969,148.27357387491438,86.85431487782247,690.8119506835938,99.36518096923828,91.98760986328125,1.0,0.8333333134651184,153.34071350097656,52.77777862548828,0.07348785157385933,1
1.027114404098221,-0.006063737999187327,-0.005961620155628696,-0.01877397497472662,3161725.5,878.5644444444445,6667.264180246913,81.65331701925473,3565.0820711168003,3528.074021561409,3525.2578509555906,3515.845527570454,3504.086668709042,3486.716179717323,3503.845249408414,3502.6960242916225,3583.0856357467223,3320.8410766206184,4600.243754202133,3676.525708140121,3391.439384455054,3324.2660977914447,3269.237126704965,3169.262943270069,3004.257954755941,3278.95800836726,3483.996966958345,3516.616890352599,3537.3464425384846,3575.0850055637957,3554.015812851758,3514.4311352533045,3527.656183986428,83912.50059333809,3498.3547888355884,71925.6326935063,268.1895462047436,74.79224376731301,802.2222290039062,169.6756134033203,112.70039367675781,1.0,1.0,286.6634216308594,144.44444274902344,0.055718072402598,1
1.000823845991206,0.0008868115519708385,-0.0010862894228912106,-0.00397476393797219,3687097.0,1024.4730555555554,3018.304273996914,54.939096042771894,4069.687664434704,4075.0183986779466,4076.7288625835536,4072.196595504827,4060.78269661099,4041.1487504907413,4072.037802730174,4043.4872062386307,4093.703643613098,3976.6912228716806,4638.461899805483,4168.253929967315,3972.5645092236546,3923.217604234912,3914.6386324403848,3971.4228253339497,4056.174391637189,4073.201339114815,4077.228596426767,4095.896794198633,4100.678939092399,4068.4364330478747,4079.0695883731873,4070.5833986199254,4076.338882971765,97794.63733454136,4074.7060243297833,16404.055329358394,128.07831717101217,83.72093023255815,716.6666870117188,53.00782012939453,51.05413055419922,0.6666666865348816,0.4166666567325592,77.86866760253906,30.55555534362793,0.1506824820841418,1
1.0149134038153598,-0.0035565040818728985,-0.005354002847371646,-0.009395093883093647,3508517.0,974.8588888888889,2917.6045320987655,54.014854735514795,3905.5428770230715,3898.419177503013,3899.950354281542,3896.921967638431,3890.5821117104047,3848.1749902613506,3858.9815401277897,3828.40823036341,3898.6864961550336,3757.816558569541,4611.103170912548,3966.4342643891105,3812.968569503041,3791.3081661592846,3804.701774514978,3872.435363230201,3934.9580496498843,4025.197926347664,3974.5770509127415,3924.921477134571,3919.3101335733713,3907.419602281414,3904.6818735945835,3896.3381213329894,3897.6574449287295,94025.8971311228,3917.0998916839476,23415.685995266693,153.0218480978017,79.6068796068796,753.7036743164062,93.90733337402344,65.86602020263672,0.9090909361839294,0.9090909361839294,154.85728454589844,84.72222137451172,0.15478097044140374,1
0.997309381643047,-0.006397551986876686,-0.0016143909522440072,0.006266534619794718,3530482.5,980.9777777777778,3959.3445061728394,62.92332243431556,3781.4283159755596,4162.4235192007,4225.208977681767,4382.517940657204,4705.887125767402,3945.3642525141004,3828.3305791032944,3817.979851186011,3851.966045874515,3735.932550033293,4729.927157069349,4045.411626023028,3789.0713448970623,3728.7282944759545,3744.243404954161,3881.9534385473944,3847.611540247586,3776.8358031914636,3819.023694139272,3847.152647344925,3831.3937442507386,3878.6139198124492,3760.2295092465915,4434.228058681042,4146.969505233858,95734.233935504,3987.9373138443493,83811.71096339442,289.502523241844,93.60780065005416,640.9722290039062,80.93878173828125,52.96749496459961,0.8999999761581421,0.699999988079071,108.28346252441406,52.77777862548828,0.08636510025220231,1
1.0033717994321343,-0.002009526816362038,-0.0006654265760816033,-0.004132873124297119,3533155.0,981.7027777777778,2061.259436728395,45.40109510494648,3915.429935333199,3930.4937879250087,3935.9640303537844,3942.6766958536796,3954.7544165592485,3913.872556270154,3898.6132120392103,3928.486721966562,3948.8382887969906,3779.685927664395,4523.1101777085105,4020.3252165963363,3791.0260472971827,3742.388808737836,3770.395863332111,3816.8096698222184,3884.5144873148133,3923.3148234147225,3919.919386050142,3908.716953334551,3944.579182197002,3937.0681954734578,3909.646463859676,3944.744295242753,3932.2105157237866,94193.76543333885,3924.7034263546934,19232.792038054133,138.6823421999143,86.88118811881189,690.5982666015625,76.33380889892578,78.98641967773438,0.9166666865348816,0.5,122.41146850585938,55.55555725097656,0.09564478949786978,1
1.003233533382027,0.00023551937063391037,-0.0025338916036784496,-0.004299787046316444,3553280.0,987.2966666666666,1424.0942111111112,37.7371728023061,3904.8117187925714,3946.5106803888852,3950.845688416015,3951.7450299428638,3958.1574741065406,3954.614831210223,3899.849606264742,3966.21235774331,4001.888878846963,3853.7787484133105,4476.516035409198,4098.727117065691,3930.6916195410067,3877.4291872781687,3956.7302932388575,4034.2070243462003,4024.4218276323763,3956.3658606832946,3966.937736507471,3963.206617517729,3949.3585059394254,3912.8870597743794,3924.4830725899283,3952.6890828861533,3951.7156083016807,95436.51799928985,3974.5912665134792,12878.009463623901,113.48131768544063,92.78919914084074,646.6270141601562,95.77827453613281,81.73572540283203,0.9230769276618958,0.8461538553237915,136.050048828125,52.77777862548828,0.17986651241840443,1
1.0273362456039963,-0.006143555196228251,-0.006316776392799074,-0.018282161333502897,3508146.0,974.7597222222222,6023.715322145063,77.61259770259635,4812.885003283966,4085.831669440825,3876.511580088249,3803.669099187855,3740.3764296309137,3870.6558267962887,3842.1802156565564,3763.447634926059,3881.0344973119736,3789.583174991597,4932.85375841013,4076.247162683204,3747.734273019815,3759.163936219995,3844.1401192511844,3903.004749840151,3943.2124710337475,3788.371616728396,3756.2468327626484,3838.6538840614876,3815.6877898848197,4126.635070498794,4722.54026427037,3794.7675400847365,3900.3355695604423,95059.159883202,3976.6308067849686,108826.9094949024,329.8892382223197,108.21643286573143,554.4444580078125,101.06327819824219,88.05322265625,0.6428571343421936,0.5714285969734192,124.83675384521484,44.44444274902344,0.09246021710229663,1
1.0156342123115416,-0.006832141829573381,0.003203206471072576,-0.01557908143250411,3573340.0,992.8763888888889,10659.56499807099,103.24516936918158,3759.51741762837,3784.519035186677,3788.1717373471506,3790.2139825497898,3795.159184557604,3683.1861576838446,3675.463215567895,3645.1226888067113,3647.523203257656,3544.447447914656,4981.056391562767,3800.205144540906,3367.8791596621636,3410.6567932446737,3482.313471771398,3686.4486569106484,3741.199407152283,3674.892387721329,3654.997384033168,3677.8952726754906,3690.6470749344826,3733.9184764691627,3774.067332760107,3791.2091827845215,3781.597251108901,89591.75012346372,3734.492298313294,78241.66929988732,279.71712371588427,90.34220532319392,664.1414184570312,105.96977996826172,92.90687561035156,1.0,0.7777777910232544,155.74559020996094,63.88888931274414,0.07940797700471026,1
1.0180319665845423,-0.004873176728131845,-0.0009813869126080264,-0.015527834206146757,3625915.0,1007.5052777777778,3735.242194367284,61.11662780591943,4388.974909364843,3912.936742858569,3897.3148963202802,3898.011523614899,3892.5797249786187,3954.558076649867,4013.3172621135795,3959.5791928392673,3995.5249833407174,3855.909372760369,4763.295199947038,4112.464702096262,3896.137147136747,3869.693319605313,3901.3042463361385,4046.2910836613305,4004.583041871318,3941.663520053115,3942.7802260031244,3973.1940544359204,3927.380939394714,4743.625893902911,4027.7436457441586,3896.301404515039,3900.325414742675,96570.84036223305,4028.619620971473,56703.78254282354,238.1255604567127,88.42575362858206,678.5353393554688,132.56349182128906,92.5462875366211,1.0,1.0,207.85128784179688,102.77777862548828,0.11272765384139379,1
